Stimulus,RMS1,RMS2,RMS3,RMS4,RMS5,RMS6,RMS7,RMS8
0,3.867351840266186,12.902593656971574,8.619001072466547,8.707350269625584,5.902194289914339,4.562669034452172,4.695333198629661,3.5104240375027236
0,3.873976291575919,12.605350919148256,8.608880328638593,8.516800892113038,5.744116276231862,4.494155749129741,4.689595685377119,3.40587727318528
0,3.865030599938575,12.463690855584863,8.60336845183029,8.408786613280915,5.660932241791439,4.494726254463569,4.647304153747191,3.388517564075961
0,3.8782761171718603,12.247762747036386,8.59695831720105,8.135235170666627,5.480501567913054,4.509249752822894,4.6865875180244485,3.33704921088938
0,3.847743261332311,11.928848892388396,8.548804084902828,8.03757202783055,5.399667606104125,4.488161064800343,4.500427330137234,3.2726528093056877
0,3.874638113788243,12.005981415260885,8.542803238954248,7.993907936833154,5.362978506533329,4.510955325506776,4.500712194354384,3.27539388901627
0,3.853070703497906,11.797544290319545,8.48754743954115,7.899529359560866,5.344779384283945,4.519189852515263,4.509818348721103,3.286335345030997
0,3.8547340192254977,11.78362618865034,8.430104783848577,7.825664549482404,5.276216593209716,4.515500369808819,4.527409402454774,3.2925712810849883
0,3.821330148333706,11.398717876619688,7.966436001381205,7.705642288409389,5.142083783936784,4.464101827714633,4.528258849174614,3.2894547907689535
0,3.7900003382720913,11.220859695571114,7.428462242082898,7.284511141051441,4.897409048120791,4.313366226641114,4.49301452114051,3.262451492909855
0,3.7485039750922033,11.006990785580143,6.193255222934887,6.938373414643063,4.715495460277471,4.192178308989131,4.47614761104875,3.228081910440443
0,3.7495298850621737,10.959248523741406,6.0098210221227655,6.822286254884776,4.602396254349606,4.157477045590918,4.46984196359191,3.2256980957814707
0,3.6296499795929322,10.935357848833814,5.998717811717382,6.740805703954204,4.522876325570959,4.145433075640636,4.479297106031544,3.19012900631355
0,3.4190267021103518,10.624475854341577,5.892629033214031,6.630349799334757,4.535048695071164,4.139552806269952,4.484160156338342,3.115716981321042
0,3.4186517060355075,10.335524995039048,5.716148963625684,6.604194471348085,4.509818348721103,4.118438837901865,4.518054947963837,3.1317235362803513
0,3.4171513102177777,10.081208718738504,5.649143343270775,6.456560964412827,4.41791225783726,4.057282152074029,4.5342005203756,3.1185960023127435
0,3.3904087946546793,9.87758405009376,5.612029204741525,6.444636012478387,4.366245820393369,4.0579140782755205,4.516919758260501,3.1083015396737914
0,3.353910843883294,9.709102258533827,5.620247279896098,6.404125273042409,4.348002783477513,4.06359699192975,4.528258849174614,3.1153054754113927
0,3.329741654720301,9.526212151150002,5.459407312623616,6.256483816297277,4.346528234385197,4.068641807021866,4.553950102763703,3.1313141338946187
0,3.3320510354080866,9.420109422849691,5.460346565501554,6.22834710756455,4.356545326228935,4.076511832185541,4.565197218196126,3.149277491417471
0,3.2949067143714794,8.894538802704753,5.460111767429355,6.2215506353072705,4.370648018608236,4.079027033308499,4.524576761620348,3.129266318533418
0,3.2898445135107712,8.66410218468519,5.239152407471837,6.05953370466315,4.391133257150286,4.082168855412839,4.5471884804704406,3.1181848763466418
0,3.236411434653971,8.427975393341466,5.186273796998757,6.062283567376411,4.4164610498823835,4.09878030638384,4.546342570597905,3.0571479921904086
0,3.150498536048069,8.087026647662292,5.187015346529081,6.046189730434389,4.46007933699701,4.107529046981272,4.537874799100091,3.0713731999438516
0,3.1626830543960778,7.997756095562215,5.168196630378571,5.980095188334252,4.460366778065655,4.131182235954578,4.52684301608833,3.0842860620928976
0,3.12680716976968,7.740502865795259,5.10077922654458,6.003417829955336,4.4844460538907605,4.163024048785838,4.5029904593417776,3.074710743118148
0,3.0751276813183313,7.555096768373465,4.993072123529684,5.982667272405151,4.4416444171280896,4.029697449990699,4.371527926281201,2.991012177533526
0,2.6297118882844592,7.100198624885118,4.645924599540482,5.6305030061766335,3.680509998105405,3.2348265122109043,4.033831289456076,2.5252570318530108
0,2.6174953775092042,6.942252645566264,4.558171023220067,5.501281901893646,3.535171268472844,3.0751276813183313,3.9658801202513834,2.4200021190921004
0,2.5439722623870864,6.649079365615695,4.452887279979713,5.473479182291128,3.556503612920694,3.062176199522666,3.9170894479944858,2.37939876051461
0,2.52728698156333,6.413527370592047,4.335305271243514,5.394916885840615,3.56298635906339,3.0713731999438516,3.876953601833433,2.3799375126466167
0,2.5535294829926714,6.265084361066661,4.315446317946375,5.404651368058481,3.5791418538885003,3.0971450873841366,3.837400295205209,2.401922307076307
0,2.5439722623870864,6.111569524376046,4.389965247219489,5.441059474507535,3.5769920037472542,3.110363157954224,3.839070400300252,2.3890777106850893
0,2.5485038345805555,6.0098210221227655,4.361545244873303,5.454943652908823,3.5966508637755537,3.1329514224425212,3.8092330475118494,2.396043747727833
0,2.52424144482949,5.750362307426087,4.313068988848208,5.336617578531103,3.612300921672771,3.0950746646061997,3.691639896875795,2.3869302246684754
0,2.4976912416192554,5.699527645745337,4.310095483504174,5.2813168521030525,3.527910691351731,3.0813749844625846,3.691639896875795,2.3869302246684754
0,2.4515824298310696,5.061164353721841,4.295197079147585,5.3190513902676,3.484765378557033,3.0542110484059757,3.644454867610694,2.3457544847157603
0,2.44320092690527,4.7176700029156615,4.203783399723976,5.300459583363672,3.463361343387634,3.062176199522666,3.63529704637525,2.3637215333409065
0,2.4479190534631026,4.997691774901997,4.319009858039936,5.38040128138394,3.4803477574547794,3.0659419433511785,3.6041286866236604,2.3419255719632477
0,2.4531507735866374,5.016383414782264,4.3240531793024815,5.321942965034191,3.4603986727484126,3.0474874055817667,3.633533280783885,2.353938325663109
0,2.4614983971098496,4.839474436394186,4.384120529879718,5.374202385661642,3.4924827698123146,3.081791021051865,3.625055260409921,2.3610080419937103
0,2.4625398604088753,4.807312805534544,4.396968652757639,5.381592558113115,3.500915631147123,3.0697030675746024,3.63070947364992,2.3566599571949607
0,2.4531507735866374,4.786733804257399,4.431530383339545,5.4847106835321116,3.527547270213362,3.0554700842746665,3.6243478635331674,2.3761636825256476
0,2.4692986650941795,4.809712396114068,4.414428557263045,5.479799734315582,3.5456726966536083,3.04327758535735,3.5888002423494094,2.3685979840944746
0,2.413105244923421,3.769309261349128,4.3773894573750765,5.47605510264273,3.5579452439539256,3.029766852331575,3.601637804082314,2.3457544847157603
0,2.417351803852667,4.043037700313199,4.406580161298409,5.4788638163353465,3.5528969761417124,3.026803340413523,3.6154937244856162,2.3320509296457352
0,2.4210614328303324,4.072106491983146,4.439334669485092,5.4935860036489075,3.587371010814294,3.039483761835476,3.6388220128258046,2.3424729426782047
0,2.4316291890048762,4.09878030638384,4.314257817147755,5.393490853773981,3.604484386470233,3.044541142640508,3.619037979551458,2.353938325663109
0,2.4316291890048762,4.318119248718572,4.255614692410065,5.328924459723171,3.60661784885678,3.049169706237404,3.639878837093063,2.3658900856624547
0,2.447395266348203,4.36272086355904,4.231142174704615,5.306503025437219,3.6458617215012,3.0638504348579887,3.6342388897391302,2.3729241940629353
0,2.4646214667487936,4.3597812224574195,4.225684590265849,5.305053227215514,3.670743654133175,3.083038793970683,3.7117277751638897,2.3664319132398464
0,2.5043551808389464,4.678373594229034,4.250490167812021,5.362978506533329,3.686426940784747,3.092588327615327,3.601637804082314,2.36751519638802
0,2.4951234489782315,4.748819016479998,4.297882603305362,5.35843452071783,3.6794648440311994,3.1153054754113927,3.6059068349811954,2.36751519638802
0,2.459935375427991,4.690689086111347,4.314554973040049,5.404176922078718,3.7310203457650593,3.115716981321042,3.5637059362410923,2.3457544847157603
0,2.462019183828278,4.720929938812849,4.532220828801885,5.738086878537221,3.817637878893043,3.180469244527388,3.5333575228973624,2.364263857893951
0,2.4781092875467863,4.725001695834725,4.905778905196061,6.481334145659543,4.163947830900567,3.318556992552714,3.57484086072194,2.3917593567315296
0,4.092833010432022,5.827652911896732,5.430918135533972,7.499401685536363,4.923777994953646,3.761818981727065,3.975566400543224,2.884974336640956
0,4.765527925661165,6.337920066491118,5.686240703077327,7.864395586993189,5.311815566770425,4.033513452218893,4.125592420551602,3.0314589869802937
0,5.0418759227605765,6.467472854848726,5.812232899845918,7.934184397358184,5.601510785218848,4.111584634314148,4.138003978136914,3.1218830609351538
0,8.04012373932079,8.483770327770488,6.3062850212491,8.301837918227074,6.374629199874878,5.121097638752948,6.61931904468916,5.619106599305532
0,9.422422792575766,9.496423078299074,6.467472854848726,8.605156474388943,6.697875667817256,5.364890612309936,7.16580197526543,6.358519421277978
0,11.079433476213762,11.536675075379032,6.759229208066515,9.271267996148653,7.6831483931243465,5.785924565436632,7.804009488882244,7.029972462286948
0,11.380595270808497,11.838550673595229,6.816270128269452,9.95579975280483,7.926909702771783,5.8550876408514405,8.099382692526634,7.204699321116205
0,12.47900801448741,12.52781520641783,6.912827170353638,10.219890109299309,8.19756061276768,5.970225267407399,8.279260464930056,7.400970137377867
0,13.044499774195035,12.857104192046053,6.969530757114066,10.318641333739581,8.44150308647544,6.138570784967074,8.330666239863412,7.463415042898532
0,14.184588964878895,14.210775976214453,7.031066593049553,10.73515671723472,8.759610107234753,6.22608244115853,8.433753916744614,7.551192807796184
0,15.14815720365572,15.347345882628229,7.408242118212072,10.878112581387146,8.8775140895555,6.278167297498898,8.439680392538875,7.618634375240076
0,17.320656113586697,17.342995334701765,7.602631123499285,11.23501851469952,9.288537187142175,6.4087280229227135,8.564536301007898,7.81386013801183
0,18.802004803089073,19.153897641780247,7.699150802323791,11.446643220859162,9.540332736228265,6.494376265425577,8.667948623136464,7.951455277220707
0,19.546197741603,20.10874283642661,7.9180093328356085,11.624796662131233,9.749161699661865,6.720042734906852,8.897709298984248,8.150979176667153
0,19.979604985700178,20.299614749407414,7.98909513184322,11.683540910405895,9.853673010348567,6.7396644518163455,8.912106430336266,8.22846840594848
0,20.55099972613473,20.77492324648724,7.966114131681416,11.652555568717588,9.875636947974806,6.7927185751380605,9.003702941938204,8.310790020764017
0,20.96303217449036,20.945044086725428,8.07988956512497,11.724508627831812,9.961335509268078,6.845923361144695,9.087466714219715,8.469856051814666
0,21.081709170237158,21.16255764679322,8.11140381160202,11.783843785411209,10.104073816649782,6.886441528327741,9.105366127053447,8.505352764055447
0,21.51308486742012,21.482133303795766,8.351109246143631,11.834759755125512,10.194644144391173,6.924686422595759,9.108885490102226,8.557647651856984
0,21.73370300141801,21.882905165026386,8.424323757384373,11.970476502307989,10.28528947026672,6.973024947831244,9.13895578392372,8.646030658854164
0,21.859281898731375,22.08892285333336,8.465465289285792,12.059999574775686,10.312178510917352,6.983864186419934,9.180944591366599,8.6877455693018
0,21.96022044632708,22.181304208956163,8.46228434940923,12.074873254099362,10.337013405904345,6.966218854457928,9.180665301851244,8.704257726199435
0,22.174887621488434,22.328893550274433,8.459253770810658,12.104989435384454,10.449266935396928,7.010431787426067,9.19392218414998,8.713679195850919
0,22.32860646495134,22.48116020365862,8.48739638734385,12.111765841316112,10.50152614061648,7.014271166700073,9.21356302359427,8.712354917307271
0,22.429147702636108,22.63704701227387,8.528083320899553,12.138094304022083,10.510434375858628,7.014819477911908,9.220517811812345,8.72984859033972
0,22.466042751741504,22.69044755522487,8.536647994052407,12.18174338076746,10.539547015031115,7.023221556069624,9.218849141144435,8.73161071286539
0,22.559323503223162,22.75606428050469,8.623908329278256,12.22209013137635,10.606359969135113,7.051822823086605,9.232190061590659,8.771457207241083
0,22.73520933683575,22.896982221939094,8.617215922582552,12.274948430619126,10.646415070161122,7.063448710956121,9.237881875108684,8.803699688490527
0,22.850629795506336,22.88516482856895,8.614388678698699,12.300927628143356,10.672274167085284,7.061088751670974,9.240795836523372,8.827695346363349
0,23.030526007999214,22.97674409551469,8.605007486699465,12.318216654145255,10.77627974433687,7.0719743009162945,9.23621634153793,8.868266676535717
0,23.214551139649128,23.17204327942596,8.632229411651698,12.319569589551206,10.838677182983313,7.069073126782243,9.242460544848267,8.878380540709044
0,23.278635522617556,23.230781966374504,8.662918321567728,12.349919547127133,10.872336101670713,7.08483392853155,9.245650398000743,8.891367175885284
0,23.459676260690603,23.372403187717577,8.696152995611158,12.38526833762078,10.878583995336422,7.076323831931306,9.230106813838711,8.912537984958792
0,23.65716674628512,23.541507260635715,8.703963140947597,12.416490275807845,10.92750000733271,7.061633427661525,9.210083660078284,8.948284465292488
0,23.72216317372903,23.545101292451363,8.678000478663982,12.407297273823403,11.01164884367506,7.058183103175258,9.225938907122067,8.962886439832502
0,23.91678951098622,23.707404447577673,8.655219264283286,12.44856082712643,11.031772296417289,7.060544033662141,9.237881875108684,8.993587459107482
0,24.01575337682352,23.81558421038735,8.647068571012657,12.432587452707933,11.030377634933028,7.053277107041659,9.238159434843595,9.013807072969664
0,24.073072519161748,23.91957679069916,8.525677655598967,12.2902921873844,11.08938045944673,7.06562643529057,9.243015380996255,9.031852466374712
0,24.122975536155334,23.99230645917081,8.313566299452036,11.950646372391274,11.056150394168014,7.001098814856467,9.224688167893362,9.032136357445406
0,23.99583297158071,23.782777651496318,7.93596164176007,11.320958553236672,10.739335795724674,6.771168137678901,9.074901991418207,8.899438184514796
0,23.944058735267685,23.70318598081333,7.757874411500574,11.086721093965727,10.578764408486295,6.60807586719967,9.0122423858057,8.87115752861124
0,23.946949915519728,23.7560248768332,7.654393744101723,11.053599019416765,10.431461288591576,6.568378014669203,8.99629553390357,8.842206477153503
0,23.247663240718328,23.181059908070175,7.254529972934506,10.814164500605392,9.989609986996873,5.838861849051379,7.377547365365073,7.515795332975712
0,22.784947797917955,22.872556616037617,7.089718087773488,10.58494334614152,9.87745425522703,5.610658355263416,6.823037897728999,6.910972323887462
1,22.086601112845514,21.986592651210337,6.856402585194106,10.056124553009525,9.172981507862628,5.165715379752874,6.066723020307438,6.22587652154606
1,22.085149901095217,21.936505109297983,6.7740076385533765,9.3884817592404,8.950863015259966,5.076592840852501,5.647781502274667,6.019838996058079
1,21.53952836185793,21.597483234193795,6.671600738222905,9.113950985390616,8.723825319498793,4.925860591216784,5.353647211157872,5.770393045316402
1,21.247865654502686,21.47013429549677,6.635568493412545,9.044760489238636,8.496756545580896,4.681934730484057,5.267948561943449,5.6887202832920565
1,20.587960136062595,20.629205088032418,6.567792432461415,8.521014746360454,8.181749546461663,4.570529902510604,5.115837651039649,5.5987635997739575
1,19.92563096192362,19.888471083803353,6.153589738247641,8.365221041725261,8.158525507807061,4.505267572235405,5.054066654050948,5.5203585911024815
1,18.353089588292686,18.299642703531756,5.944616180920475,7.930628713719474,7.8264836391476695,4.332642943030832,4.801175069843012,5.250396810400778
1,16.90311760047195,16.52247886039827,5.8653699033022715,7.743483612789431,7.584227898772084,4.1903429882259475,4.622409184253019,5.065215716670935
1,16.140330120857392,15.401964576654265,5.611115342301866,7.538278386053478,7.380848398180461,3.8270293761811973,4.184219438281447,4.7569113012757684
1,15.686512253100325,15.252742502453579,5.516641490375583,7.448283230176138,7.311739769818019,3.7943953269837207,4.171638059870979,4.661077238755117
1,15.080382910189938,14.67188135734823,5.5052422569485815,7.495639758193785,7.321202087089251,3.69337591385248,3.956170124158218,4.515500369808819
1,14.799688146402588,14.475266261224121,5.303844759301429,7.367113340675504,7.2471037539497685,3.558305560451275,3.7757661813743524,4.228717451196199
1,14.81864729630568,14.212670403551895,5.259911279353167,7.261948597717931,7.071793012401905,3.4607691452801466,3.7003118371709824,4.16917872992407
1,14.23673471638126,13.81136655634938,4.875106836436168,7.227617971258687,7.044000902750419,3.404371247344154,3.7158703297736735,4.09533818771965
1,13.963597361785082,13.24009063413087,4.745037893988267,6.951480196553604,6.946683399753457,3.306171385571116,3.6321216516393955,3.909226430133113
1,13.879518206372497,12.937819734684027,4.66959615011065,6.797435413825438,6.947606117881954,3.2808691781451094,3.520635140833511,3.826694362447796
1,13.762546723179264,12.718147744513823,4.577257044484399,6.734336051258658,6.91152883009474,3.3139178146193187,3.5253659566355844,3.799460150586848
1,13.642317270640664,12.51757738501119,4.585652094108877,6.7415664313806145,6.846297895344232,3.2742194215587963,3.457433463401162,3.786954665826572
1,13.453814633966392,12.488764181024107,4.550570547490975,6.733193702538004,6.781573828378158,3.236411434653971,3.410767264609729,3.81595839358063
1,13.54848841980309,12.430834285181387,4.65088907960287,6.826794870591045,6.866305691283621,3.25694524173992,3.405124343525768,3.782889954817138
1,13.858256818636391,12.443101270614541,4.7013364166547476,6.938927723266611,6.883275904646506,3.2360152768172883,3.398717706912719,3.8293736516697563
1,13.81999666035805,12.429184019259486,4.58257569495584,6.879736130896971,6.788753897968278,3.2009613940430217,3.394188094450987,3.7950710273411357
1,13.618897127681043,12.346077961265312,4.614081012481639,6.793473489407466,6.730146491338194,3.153752343820587,3.3366650016645862,3.7272386148873933
1,13.601941791995014,12.264604062933007,4.617136419681437,6.771925454327916,6.691556102800235,3.1345878557859925,3.3189432980068543,3.706888943713534
1,13.481611407908408,12.222299922052944,4.668497809239263,6.956642278777298,6.524116994973539,3.1070639120954935,3.3204880703958306,3.6218708864271676
1,13.400153079875713,12.105413071887536,4.716582856915995,7.019387072372835,6.533346415476175,3.1545652713618164,3.3638348079810068,3.619746414124075
1,13.3493493551232,12.033819863734895,4.669870694964938,7.00841984458328,6.534327501544126,3.117773696167318,3.3497033929159787,3.6108809920103346
1,13.119763912822712,11.78395258228488,4.627952972746019,7.124533273062479,6.52274128309209,3.1214723679042464,3.3786661000141187,3.560466693696639
1,12.839442435373977,11.540786090632803,4.609076886274489,7.130109503960058,6.445431695673281,3.1169511730831805,3.3584947788387556,3.496151730557031
1,12.738494054213424,11.466674120450767,4.627952972746019,7.176707337291121,6.321311126576065,3.128036985813209,3.326274577376703,3.457804253628342
1,12.428977720612712,11.178390324926495,4.6745354904291885,7.162938803849459,6.366579406033772,3.1136589079203576,3.3293566022003986,3.410767264609729
1,12.284344842323835,10.975847610514222,4.786465962508917,7.238784428341543,6.410728187767432,3.124756400761916,3.3623099507820817,3.3873823188944843
1,12.47366456548787,11.231023881903974,4.987934159498016,7.401836224017624,6.302014329988834,3.0415920257789426,3.360784401724067,3.4160255808806186
1,12.539885085148027,11.273636139013526,4.985877491372443,7.44793896804981,6.17023458806834,3.0234129127569793,3.37106846031085,3.411143127442388
1,12.377916646706767,11.208627629345768,5.1225995003538625,7.492047065440074,6.17314282255743,3.0255323752764824,3.36764393026128,3.3990949021535357
1,12.311970410320818,11.276819882691514,5.176623986483459,7.460837926406294,6.214746730404782,3.064687209538307,3.3630724658051023,3.387760776224183
1,12.238652515069434,11.27591033336794,5.1721641554848246,7.476287300182611,6.199462342278831,3.034840425830724,3.3748694181765893,3.39494344954979
1,12.023801182313141,11.23798503702099,5.2200304547692005,7.509139730167464,6.233285341924125,3.022140521771503,3.361928628416151,3.389652429046906
1,12.05744795891947,11.110517078137711,5.260886149397559,7.479373345476588,6.090555951214289,3.025956089636837,3.391543026789444,3.371828994660134
1,11.997221900645721,11.192144681163773,5.210689210774526,7.4244916945927635,6.03918826265541,3.033995419430986,3.4298837537302287,3.3786661000141187
1,11.77285012220915,11.031191208893965,5.352449714730438,7.4153340779212025,6.084237726942359,3.0676141234282404,3.4336196046946714,3.3938103538572566
1,11.730193344418321,11.00605893739141,5.378256318328555,7.426908802387058,6.060803027102377,3.0905148521374315,3.4585457148255916,3.421650523898124
1,11.747885789060962,11.006641351754578,5.444121741701001,7.349690382454809,6.06566630241952,3.1124234106527804,3.449265994010305,3.4223998177916783
1,11.809492053602584,11.485553914285054,5.524769399991001,7.410491523197677,6.090134940191686,3.148463198581256,3.423148947672116,3.3687858270774576
1,11.808189248709276,11.491691536017418,5.5377492419453835,7.395251421672126,5.9672181381019005,3.169971285156689,3.4459191769916737,3.3527638808937383
1,11.390842025560799,11.370903037904943,5.627086507607872,7.505041040903176,5.790575898023376,3.1820812412069284,3.4451749983463498,3.332820473366711
1,11.54767153796461,11.367181731318476,5.758160318748537,7.5503438536064245,5.8124534737591995,3.182484112796972,3.4666913214113424,3.3343588166165796
1,11.550224773037636,11.543562974829138,5.784594926314068,7.678474741703222,5.78681082178945,3.1808723202839686,3.446663194959319,3.3332051257395503
1,11.523888232710346,11.478742895523816,5.807819662383572,7.73039289809867,5.813776741499453,3.2177392923986483,3.4755556648523385,3.2925712810849883
1,11.436222255936594,11.476620605074498,5.898065741171378,7.7264115796038135,5.796771869115094,3.207363323226648,3.47629333983992,3.2878954378532796
1,11.35273603078198,11.649694614683451,5.948281372131893,7.790033079815219,5.838203095526515,3.2423479937879143,3.4615099713927275,3.310434164724373
1,11.537897422107587,11.838875552981134,6.069469625796107,7.896769868685193,5.797877595757314,3.2332408128449317,3.498717713823972,3.3519990208676127
1,11.59675020790805,11.918526840649479,6.073903826395977,7.911205943924067,5.69795284875776,3.230067078766838,3.495051446743612,3.357349381847959
1,11.909057100612165,12.04638471141382,6.08613388293633,8.057963094403524,5.721305212391079,3.2812599206199238,3.661301435982594,3.495785007764754
1,11.899579824514813,12.333818424278709,6.195531888757848,8.046499477794915,5.690748227132825,3.2636301952399647,3.671092899522304,3.5085974990381
1,11.986103064243467,12.410706709355475,6.3062850212491,8.07226972180306,5.698852786037123,3.3358964504620237,4.129319804917276,3.820323519660579
1,11.766968108291042,12.440834335942222,6.49417885296971,8.329896727281767,5.650731742948804,3.3332051257395503,4.184525828604289,3.8363978831644556
1,11.74854055311574,12.535385811210498,6.947237045336985,8.88112374502005,5.82126957692044,3.4544657088084305,5.231070881196561,4.000320499980483
1,12.223873237361264,12.83454872699625,7.133345315110954,8.886751879869212,5.7400973814664455,3.5791418538885003,5.679472709363982,4.48473193321747
1,11.983428728980872,12.873646306729466,8.213965593380019,9.59700808078039,5.830072348585701,3.650079029702908,6.1442071946901375,4.636256226188517
1,12.036483002809545,12.955149456331927,9.768473622991307,10.759491933482114,6.101912268570676,3.7423426092660472,6.787998458818556,4.826210489846842
1,11.991343031216633,13.047840964931854,11.4383520419638,12.926319800691285,8.356940919885789,4.3329388380588725,8.790583540036405,8.252427770211872
1,11.845479501285906,13.622850336183367,13.29815873123139,14.027354229029317,8.709116944255483,4.386751616354606,9.021768545706973,8.632229411651698
1,11.67069527513799,13.61946194200577,13.390965189931185,14.155002739812613,8.86306076667909,4.409779342116093,9.067552747048833,8.757707228346693
1,11.656295756767275,13.450002382994738,13.527180614770225,14.519218033616422,8.807776284450183,4.397260219261243,9.19392218414998,8.80384531370766
1,12.262617782178276,13.547352849570622,13.730650721315769,14.613130730394145,8.829728340334292,4.501851470969102,9.301640329560847,9.0167934490352
1,12.327892077598792,13.577507795936556,14.373854469407025,14.716029983033415,8.825371351233866,4.514080535050641,9.412621096030367,9.07292393431956
1,12.280169546979558,13.601941791995014,14.414113454065314,14.707489806566462,8.84597547200319,4.523159775972363,9.408942827342779,9.071228113501473
1,12.261676800043213,13.626237887779553,14.454881173624006,14.73579281014733,8.819849408563822,4.561544947459392,9.409351594870788,9.069956039810918
1,12.199411503250516,13.647578915558988,14.535015193203847,14.795096207692325,8.777155663337727,4.612691521977497,9.39298701841992,9.052128238211479
1,12.156669584413956,13.674700577981074,14.546477236774544,14.77931680180803,8.717797887081348,4.636809247747852,9.374952991335135,9.037386733694591
1,11.843855920979582,13.329454564023202,14.511357179102415,14.677210662128987,8.678148213199428,4.625181909104516,9.363184862493679,8.999287721102126
1,11.664541931063495,13.161910858074425,14.536602784447972,14.637062196478833,8.652997109346504,4.609355035810742,9.357706271660094,8.9925895417653
1,11.64364028018553,13.198970433818712,14.504110823116003,14.604530382463782,8.628812795304476,4.594868933149292,9.337270231958342,8.980605884420163
1,11.560653872022895,13.076402704578491,14.483854848832587,14.616902755161442,8.564386606682229,4.562107025577164,9.320091338828314,8.959166627910582
1,11.599734744977843,13.036044704528345,14.55828251352438,14.832483409819277,8.901886864232196,5.049498578813138,9.468165284053391,9.074478158338023
1,11.560542973673591,12.95732640988517,14.544449994448936,14.8195989426338,8.883000186181034,5.05863060419948,9.471143758942956,9.07292393431956
1,11.398717876619688,12.91242693031675,14.537925644715688,14.848810709520796,8.854232654354407,5.04746699612024,9.45773323522703,9.0684010407512
1,11.345506283128701,12.713106501680732,14.52954549556497,14.834644136839504,8.837565507681632,5.035514894865297,9.441588306190317,9.06444165760377
1,11.283298299381281,12.714114910158628,14.476948963163863,14.82764223870317,8.810686983896609,5.02634087225514,9.443624901596381,9.056517698349229
1,11.32492146347365,12.805948137186395,14.57218988171366,15.008117461680188,9.114794960913118,5.461989869391313,9.622356446824426,9.204374656678901
1,11.235589060590527,12.78310182654008,14.548063577196583,15.045997849330275,9.151992917336331,5.5463085436656385,9.657599638069016,9.233856321391542
1,11.008039020503292,12.433824833895642,14.534750577804022,15.026813641125926,9.12379250879752,5.5303359196901765,9.659059783303752,9.233578632305806
1,10.948363652467279,12.326644062604949,14.52283789459968,15.012046444823518,9.121684504801085,5.5203585911024815,9.64936559625846,9.230662392544113
1,10.915643913726852,12.29070943686891,14.474823412412078,14.937905664484083,9.1104335791443,5.493119239044331,9.644581313771413,9.228717720747058
1,10.637861747743415,12.189213390408877,14.400320509253632,14.844924886027375,9.039088903486247,5.48213883022367,9.628083921528727,9.214258738637856
1,10.481974760120103,11.982572815637353,14.37822427608268,14.764996722150947,9.024468163887867,5.4952193675444745,9.634207217926585,9.211614741935648
1,10.379096349183826,11.927129170777445,14.360647796259231,14.731442041272967,8.95930972615808,5.458233019238707,9.611291436478403,9.20284237028472
1,10.26282812024254,11.852404278435964,14.317910605341972,14.707315465615341,8.955874737159531,5.483074189184619,9.611424825669042,9.204096078126554
1,9.929882381104225,11.660584495179938,14.298915146226106,14.649494609292578,8.901598819226889,5.508036087251202,9.617425424450756,9.187924070101403
1,9.424735594468475,11.452465863689547,14.23439316296795,14.58546870813199,8.898429708777346,5.510130530353928,9.607422344342114,9.168088467823932
1,9.271267996148653,11.248019768739239,14.222859894892574,14.553614407001868,8.89151136528399,5.503611867650515,9.5908610345795,9.149471050985435
1,8.763122028838106,11.03153986508102,14.206354663336855,14.478100172860547,8.848294055483672,5.4774596395194095,9.5241932157142,9.096491293139012
1,8.592483298253727,10.653156508272259,14.16378552904627,14.473937674139398,8.835969611443838,5.483308003994183,9.512070604210589,9.079421646553124
1,8.396733186491529,10.496397428373173,14.115639626006399,14.437575618627587,8.818977206817069,5.433042307763554,9.31940352443664,8.94957383314266
1,8.331127913295552,10.376625606350023,14.022417948706462,14.26444387189206,8.777155663337727,5.404176922078718,9.29295294074894,8.938966842153976
1,8.252427770211872,9.943429733839068,13.77623371551947,13.879795313646305,8.636832277801382,5.351251950328767,8.745401722165271,8.857851797221404
1,7.048913355062572,9.248423289044103,13.609856910644032,13.787861625543252,8.60128195573493,5.259180008230785,8.454554227130322,8.61974477580398
1,6.739093753271623,9.037954159245077,12.961975949399864,13.165124869157633,8.484223669968355,5.207243475715786,8.112510124050416,8.511831885750684
0,6.401922788086043,8.767363723871998,11.820777014679248,12.23026930118414,8.287772890661248,5.128602548703117,7.565440994145512,8.381144894558842
0,6.28816552271214,8.362921830225458,10.200427341475354,9.88964752683978,5.991660871578097,4.655297506260462,5.0972591931401015,5.033222956847166
0,6.179577613978117,7.3434079980374936,7.598076679711072,8.220830328017437,5.450476337687588,4.6085205368384266,4.658050654236802,4.322273855513008
0,6.105063052237452,7.081575950924903,7.380674696418951,7.795955558937152,5.175633245041565,4.580616910641107,4.552260638746086,4.052223194804652
0,5.585696017507576,6.951480196553604,7.068891763864458,6.998168258505862,5.126102132900112,4.557608459685285,4.251394944528087,3.9295070480946643
0,3.8858718455450894,6.546872418303144,6.644450161504558,6.742897497861485,5.037551297696439,4.469268281761454,4.000961422919785,3.3922989708591884
0,3.3416562759605704,6.413127562134183,5.0507679030278565,6.276533421791984,5.033477668163179,4.470128776897964,3.7289580589124633,3.2296701427187933
0,3.191736124302804,6.178955185101053,4.901334198264482,6.178125182385897,4.9564772436345015,4.45921690262039,3.7013511046643495,3.1905308617042367
0,3.155377989466596,6.029202439069537,4.751248149103452,6.01962602126556,4.969909455915671,4.41791225783726,3.6944171324740727,3.1957503833717227
0,3.157002798013753,5.812894596476319,4.4323982048270265,5.744116276231862,4.927421960770884,4.34859246311452,3.689555598282876,3.196552630248518
0,3.1427572411694604,5.6887202832920565,4.250791781448577,5.672244615172989,4.963972767957701,4.320197051536256,3.682947537517004,3.2085622628946746
0,3.129266318533418,5.529176690231093,4.141101055120238,5.675182138724034,4.989476104249001,4.329682880553014,3.697192281885102,3.218536058361683
0,3.1419412584889095,5.5430714433102,4.033513452218893,5.644148319845099,4.988191183390156,4.339443424077474,3.712418521941092,3.23205102777692
0,3.1370409052203385,5.44247304269969,3.9483849343425965,5.607229765314209,5.00153822492487,4.353012514192665,3.7172501554171355,3.2292731578801335
0,3.1456115136602287,5.405837300832955,3.9749213828703582,5.573747990954262,5.031694418180492,4.367126615040474,3.722419946272889,3.234033759714694
0,2.81251780621144,5.317846103403819,3.66864748360678,4.883514917425558,4.452311413533079,3.814614272935345,3.3397374378603706,2.868037835461908
0,2.833861187632385,5.378017936291857,3.7251742344383136,4.84291711201484,4.449142815742353,3.812260921465546,3.343190553486755,2.88275153460308
0,2.831598262103704,5.400142448263607,3.7106914139053346,4.708421260808209,4.480155674950913,3.8280342414673036,3.3470231703058317,2.890745622916388
0,2.8738431340235606,5.60242621434495,3.7327380477785117,4.699427133663781,4.5083967245176,3.8600518131237567,3.3922989708591884,2.91371645664838
0,2.885862978071746,5.559699309338267,3.7416573867739413,4.69287512332013,4.513512476087207,3.888510360088143,3.397585869936144,2.9303889651681887
0,2.4205318339105477,5.199358934843154,3.31430466080223,4.063912476344024,3.881250129030924,3.2459047176245694,2.814340565836484,2.3863930512117646
0,2.3353471163504054,4.96655480858378,3.234033759714694,3.8686776379877745,3.73857233137505,3.0917591042923056,2.7061184236978475,2.2713375704580683
0,2.3138379705256273,4.623518473730053,3.155784270030884,3.824683663808698,3.6996188299849875,3.0571479921904086,2.687101192830821,2.2549091743605514
0,2.303286392337741,4.533352186989452,3.1345878557859925,3.8300431811182976,3.667249370947925,3.051691418348276,2.7051707373008305,2.261721604306024
0,2.3293005442924333,4.440489693485249,3.1622776601683795,3.8313818890169613,3.6812066026348007,3.0772115249411716,2.721236521349845,2.2870874995874626
0,2.3408304465482286,4.290418663451424,3.2530064989254606,3.803844209379607,3.687817782917155,3.11653983013542,2.735802511990839,2.291567596926185
0,2.3375419919442226,4.414428557263045,3.2459047176245694,3.7275825671434557,3.6239941133138354,3.0979728690606536,2.699002664803313,2.2673829938997163
0,2.3265469075048784,4.39142521109211,3.2875054840550924,3.7303330434941886,3.5920139340715402,3.0867790863949316,2.7051707373008305,2.2662518474118087
0,2.3177132850710573,4.425450867947286,3.2742194215587963,3.7570446650771423,3.57519947444213,3.0776281243507753,2.696626572552246,2.253771767390651
0,2.2775380319940846,4.5316550437889065,3.27539388901627,3.7396009659608582,3.535171268472844,3.0038436915187385,2.6399300690038685,2.234920981795955
0,2.262288380810174,4.454614432651803,3.2917924351175967,3.7433702078234945,3.5406069304424963,3.004270464795243,2.629224317706748,2.2366412547755847
0,2.2651201360566358,4.538157312706534,3.3112086258800675,3.734454959716859,3.535171268472844,3.033572827964429,2.6413865822561977,2.238932896006603
0,2.285966103344716,4.552542259621653,3.315464928529284,3.724141615088069,3.5496478698597698,3.0373740345306546,2.6669871602279063,2.2526337861177024
0,2.3021728866442674,4.749358931099044,3.3092721331558774,3.704467157780849,3.546395786840927,3.042013503232054,2.6655446357411097,2.2769750513818514
0,2.3430201855177413,4.825944839069712,3.324346860855836,3.781873094455194,3.5787836352163436,3.0373740345306546,2.653009901689313,2.2679483555825835
0,2.3512135437269683,4.879049928534059,3.3123699780964793,3.7699894579190154,3.6034171815951845,3.033572827964429,2.6457513110645907,2.2492163877613818
0,2.3468473123942912,4.902641883301026,3.315464928529284,3.8384024454626084,3.6374124361651967,3.010664804341819,2.6155354405982805,2.229177150706235
0,2.3293005442924333,4.929242933497587,3.33089654520698,3.8709966913723117,3.65604522218567,3.009387023367094,2.6116111541561504,2.2141734581021657
0,2.359378449224852,5.0102459123843515,3.30965952234458,3.88982894620949,3.633533280783885,3.0064034224404312,2.626296993379823,2.222841793971321
0,2.353938325663109,5.029400739140976,3.2929606349893925,3.8643671323171835,3.642343567906063,3.01534536866139,2.6253204932555745,2.217066669133929
0,2.3658900856624547,5.04746699612024,3.2793057426605032,3.8875211269934615,3.6791163933609705,3.002989963011651,2.627761063173021,2.221687969967303
0,2.3831674677804706,5.077602907086304,3.2921818811331702,3.8792677077920192,3.6874701215651764,3.002989963011651,2.6199432368092563,2.2101165997782526
0,2.3745444907311253,5.1495581089981615,3.3158515942170563,3.8987177379235853,3.6947641401423787,3.003416857599494,2.62385506166316,2.2025626100708355
0,2.3685979840944746,5.143828764546343,3.2761766334148303,3.900690274218733,3.6958049676591918,3.0200186788350862,2.6194538479496945,2.1856173217018293
0,2.3772425310182492,5.163481234742552,3.2506409624359724,3.9115214431215892,3.697539029110426,3.0399055315956187,2.6311740579210876,2.1762117166988686
0,2.364263857893951,5.1562757380865,3.236807544004289,3.9282017808113205,3.7158703297736735,3.0542110484059757,2.611120203657564,2.2008156995963435
0,2.378859886368754,5.148313141712362,3.2537946289185933,3.948709623700848,3.7672679347648863,3.073459589152564,2.642357145060312,2.223995019363543
0,2.3761636825256476,5.162487971054466,3.2514296658231547,3.950332670184652,3.777124126457412,3.1074765093899352,2.6544592379906393,2.234920981795955
0,2.3810146512003594,5.196645861046162,3.2573388540734305,3.9678192680097895,3.78560024709018,3.1140706314141138,2.653009901689313,2.238932896006603
0,2.3869302246684754,5.198865754008765,3.2391831828885027,3.922322702763681,3.7536307210144675,3.13581462037113,2.6655446357411097,2.218222896940887
0,2.4035230552093894,5.196399147733371,3.2209251736665623,3.8894993415869257,3.7016974623224006,3.1284468170610618,2.6559077833852127,2.2135943621178655
0,2.38478080484968,5.174146777179294,3.1925393799149435,3.8360636876079903,3.7131091402192165,3.146833980775615,2.660248687044705,2.20895612891863
0,2.417351803852667,5.3212202186514155,3.2009613940430217,3.865030599938575,3.734454959716859,3.152125859780576,2.6780207004044745,2.2400778374754564
0,2.4279357064946745,5.287139694943397,3.1325421805333304,3.8273643605904506,3.6881654114971716,3.170780054473371,2.7046967695815023,2.2566142098966964
0,2.4205318339105477,5.262835347741357,3.1407168869706426,3.8132696785076243,3.6091052943411093,3.1472413642948016,2.662175705542271,2.2668174912113104
0,2.417351803852667,5.22886466080598,3.0659419433511785,3.7805168551810073,3.6080394562627385,3.1349968306531233,2.668428904901313,2.280350850198276
0,2.482244641758435,5.463398022176121,3.0424349222966556,3.7351415035152353,3.5690981407719145,3.121061620831226,2.6679484099113906,2.281475006465818
0,2.5028189235545115,5.296830208380316,3.0234129127569793,3.7175950318065603,3.5380713274252567,3.088855069605183,2.6350692103984183,2.274721735588548
0,2.5201750040983364,5.349334969450372,3.0399055315956187,3.714835124201342,3.5348085938098253,3.0609199220546053,2.642357145060312,2.2651201360566358
0,2.5191573682788944,5.457528321925172,3.0449622118829116,3.6728386283287193,3.522819383711917,3.0584058190250283,2.6679484099113906,2.258885588639695
0,2.532354736765865,5.490784820835538,3.0588249796956766,3.6641016669357067,3.5449494589721118,3.0625948441619206,2.6607305725095842,2.258317958127243
0,2.571540494104752,5.547001962252291,3.1752246034022984,3.7682887362833544,3.591656999213594,3.0971450873841366,2.6794565082283346,2.2854051988820108
0,2.5844703866531686,5.868210752511999,3.876953601833433,4.159635092476755,3.877284272958759,3.1378581622109447,2.6832815729997477,2.2758486723609677
0,2.9465320772140395,6.146084849264528,5.8254525520252445,5.823911805474798,4.724458997653892,4.0,3.1849002721576296,2.7136880005082684
0,6.081076153074156,7.803680919760616,6.9737603438412865,6.297129993405421,5.24746581083645,4.355368040617321,3.691292595506488,3.6763275990293107
0,8.52898527045215,9.482507512148288,7.822059535992767,8.014730028884157,5.970010522689692,5.106054726674487,4.973004044917843,5.036533199202271
0,11.226799438888433,10.961587944107835,7.907964177707019,9.258398820419691,7.404607020511293,5.508967049158848,6.823789457779494,6.637113985105428
0,14.992305718908975,15.08412308458033,8.364454708114723,9.836613968179007,8.115196254953435,5.8423739467217715,7.302967433402215,7.181350490805673
0,16.558985476169727,16.206836164456604,8.60753992670052,10.03263904233807,8.206470242811696,5.950651763484098,7.412221370211877,7.325403638130698
0,17.87750341085489,18.065337258307974,8.697627144728495,10.432690239867455,8.859299040397016,6.168987782157642,7.505724311210574,7.489137432787536
0,19.21217562660961,18.996288436401844,8.721326645731054,10.53869548682865,8.954872617170139,6.213302520007231,7.6156047624227385,7.666945368401374
0,20.509847540970316,20.977888236707596,8.83306724321042,10.904715517280609,9.211753918576541,6.256483816297277,7.703146210378039,7.852975918034562
0,21.857639631406002,21.369580584535917,8.891655552344483,11.039672050127168,9.363458707889889,6.294482728589603,7.76695828659077,7.976246787839053
0,22.208337542694554,21.88108889616902,8.978321469531842,11.180569225452173,9.44443941679102,6.333468284662087,7.7929948819930095,8.013930179573373
0,22.6765438509849,22.283718328952702,9.103113020646655,11.254514763600541,9.485751798328227,6.38768847882895,7.849220114779328,8.083696793308977
0,22.792542640082964,22.48486670561404,9.133623427921524,11.429045319845264,9.565831286674891,6.440855174944969,7.8826326462608565,8.101440201182339
0,23.06078923194087,22.831265113144006,9.185551642354365,11.550002775002442,9.733105020153298,6.45298579271841,7.9055319806725155,8.181749546461663
0,23.31589091651377,23.1144865220815,9.198243979569813,11.701523021625905,9.880568861439155,6.552744580590757,7.944519155706317,8.23407554009556
0,23.562900000005442,23.177077535291698,9.267118601781634,11.920678005154073,10.025863988602115,6.580858022149719,7.963377713971918,8.275543207827228
0,23.736318596463533,23.617464203098,9.385613650142627,11.982786799704796,10.121188741371318,6.638852233207105,7.990539277715738,8.343429781140399
0,23.868066854787706,23.68825306630553,9.430311194799948,12.053300431087383,10.250328324947976,6.669486583092531,8.032466173007691,8.424932473289456
0,24.086862042966974,23.82161268195818,9.444982387897413,12.098421172690049,10.28641125029796,6.692513996230683,8.037891036067379,8.447575892617861
0,24.38557791516146,24.066893954463353,9.475880312261637,12.203194201435489,10.325596772969043,6.720042734906852,8.104446389609304,8.502940667792526
0,24.53365036027048,24.40024169699544,9.510587891990802,12.251530516633421,10.42875708600859,6.752777206453653,8.124354017712928,8.573214099741124
0,24.692155922530624,24.556162733723855,9.5500033561546,12.30509587997528,10.490044120070499,6.766432988260165,8.130821385952123,8.621975500919818
0,24.79919353527449,24.63570475383135,9.580161124923066,12.325083866152486,10.488821888819764,6.7740076385533765,8.128771314099264,8.638019716079873
0,24.927330279670844,24.719244034578114,9.612625245091172,12.371804171645236,10.519822558706334,6.779304858093812,8.157582598181513,8.65966186347617
0,24.9899979991996,24.813044542884686,9.630879822417377,12.409467022997877,10.559963092398595,6.827358238207551,8.170930336510192,8.681545413647893
0,25.156790386774354,24.83571662974154,9.650826987282569,12.546835334978974,10.610710602366812,6.829235794615789,8.170773431049136,8.710736081234643
0,25.34854469094267,25.01676361039656,9.666091936937768,12.614602852575468,10.637982264821966,6.837115901178936,8.172499225435484,8.726176358872989
0,25.399929335657813,25.12420428641753,9.69073043739513,12.666329280257063,10.67815887328321,6.832238811655165,8.180495878644082,8.73293207142381
0,25.517867043731115,25.16978245273385,9.695756407196518,12.773168994178624,10.699269085987089,6.827170454167408,8.197404217033334,8.7487728077157
0,25.769938757974252,25.474471887533173,9.710422632012866,12.793728431520156,10.737306160752965,6.814012711374204,8.19584009554816,8.76370721227975
0,25.93329707992984,25.512189143070316,9.734553839880823,12.90934863001546,10.786506290208983,6.825104488727721,8.212248513106848,8.793937305515279
0,26.00478259760535,25.579940057266228,9.738109119884067,12.932170182959457,10.83228791800059,6.825667995862646,8.211155638707435,8.808795138659532
0,26.041633333312,25.63886272928817,9.760333117476193,13.034962846523822,10.887536982185711,6.826231456479915,8.232206919728803,8.88170115375514
0,26.154668162044548,25.721536421789345,9.778967487838639,13.08169596156283,11.063105698324847,6.857524409409057,8.232051182218601,8.896268304384133
0,26.288244423540245,25.773669728660124,9.776345077631163,13.101673410440597,11.11985980358035,6.872464567443708,8.238278386242527,8.93781938643959
0,26.366985961955315,25.88490303493921,9.791283407665757,13.177292045068503,11.193061037295177,6.891466294795882,8.265001900196783,9.010819707156047
0,26.522220968995132,25.960028446114556,9.805283766602052,13.21100939484827,11.274887002674436,6.918018094727302,8.283904690607981,9.092121131323903
1,26.546234461832135,26.00389517173464,9.784734316322833,13.270557347289236,11.281593813569028,6.914125266809115,8.303382072755285,9.134325231559112
1,26.63186832079962,25.968422639024002,9.542348256923463,13.177097458693149,11.31257525828487,6.885696806628978,8.298285272364312,9.166969691961096
1,26.66939088649027,26.028386870432886,8.552402571417563,12.577758146824099,11.111094017080868,6.425310528263625,8.118986926824597,9.083374500024334
1,26.190084246151496,25.661704482030746,7.618297811090187,12.378227369882685,10.926796044352242,6.185591197415043,7.9217325222356605,8.764146074219463
1,25.57623095265582,25.188519973621684,6.770789447589531,11.350138370330162,10.595717567452937,5.581563056514381,7.204521372383332,8.131925056725814
1,24.586268838207545,24.61138990021719,6.660060829783033,10.420394204856906,9.675504359741906,5.211673288065788,5.482840364404061,6.91523772697026
1,22.66150016533746,22.49216387761382,6.112828041640519,9.905968157035693,9.117888869464107,4.827538524458216,4.85745527976036,6.400721113220819
1,21.625305689257807,21.875404758160094,5.764168719394066,9.741399888869761,9.08845421400141,4.6996999358660645,4.695333198629661,6.254639303789854
1,20.621932561331455,20.509785031815476,5.644602595536595,9.33658368311423,8.48467698794383,4.436445793881774,4.592077905173157,6.116602039761988
1,19.4463759724412,19.759256188637394,5.609744269503804,9.289365300832328,8.460920723371629,4.36272086355904,4.414718970641686,5.90306309013836
1,18.157078156451472,17.92641654811162,5.448358962533158,8.905486640700344,8.253981168394143,4.305333603322446,4.2601312126175115,5.666817494222
1,16.663025243226702,17.676944277062113,5.370622845032943,8.805883813882042,8.115354234965617,4.237197912989922,4.138313790137358,5.489150137386409
1,16.380648370123847,17.130344945409533,5.221994903217617,8.63861337401096,8.033264176742437,4.157168661727749,4.105031309415563,5.5182680300327975
1,15.945982533991405,16.759077142452284,5.084415605679974,8.627624089857962,8.010089791103372,4.112208215819867,4.082168855412839,5.490084301814103
1,15.934803064925173,16.561772480393145,5.0337323665905735,8.408634146228994,7.946455426550497,4.048741494873153,4.022054584030788,5.513852020372337
1,15.564176487806535,16.154224659790216,4.95906318696462,8.2722892376155,7.75440321564266,4.01439716712044,3.9900517315584794,5.4205213109120125
1,15.236932190047398,15.861904047118681,4.971456991203345,8.067662578912152,7.598582863828066,3.8603839320155844,3.8967442031284762,5.344539509078642
1,15.064221494347766,16.030899650042837,4.91256891385081,7.847749963344875,7.416544222555961,3.808896468492194,3.8500749243458787,5.309159960594472
1,14.892951352905172,15.394054796476563,4.703244924572058,7.793981899270349,7.344804547852437,3.7117277751638897,3.8206590920201053,5.203549084703927
1,14.816311177991535,15.598816523155753,4.636256226188517,7.701981097127726,7.216789541205375,3.64656494490855,3.7396009659608582,5.108313987498399
1,14.588720616653443,15.53696997156897,4.65088907960287,7.6525511080644515,7.2290368901378805,3.599145197660988,3.7323945706167283,5.110823105969607
1,14.296852800529214,15.483324363111862,4.6475800154489,7.528237441417412,7.261595501731643,3.5528969761417124,3.6034171815951845,5.063443644246624
1,14.25905020751778,15.121389164240508,4.622686531577798,7.465647824261297,7.129030573863246,3.4511239343518816,3.555061397284376,5.021492269772464
1,14.124809960146592,15.28632705628775,4.655022101905722,7.4172356451298365,7.047094327560719,3.385489397640829,3.5518142709585216,4.969393503725761
1,14.316746514806734,15.26719291445482,4.624073018676422,7.4234555503277795,7.081213860884993,3.36764393026128,3.5611867800006336,4.971714866919534
1,14.2917404872131,15.414694953609057,4.576416692521534,7.392477118579262,7.118952674339617,3.347789167150809,3.4873397399075503,4.95207804089121
1,14.270554227104073,15.284397944074229,4.544932370939116,7.4563688144723566,7.178850704388373,3.25694524173992,3.4459191769916737,4.913612697760146
1,14.057026712644463,15.58113586590512,4.567162615779556,7.319100407101324,7.119853066763927,3.2502465389724766,3.445547107760228,4.910219588802156
1,13.86019942876466,15.36688080389204,4.527975717974215,7.267772204775877,7.110122794568752,3.23086080456301,3.459287017098562,4.927421960770884
1,13.86602562620835,15.455975526869194,4.54069914417909,7.191697492283224,7.059817677605112,3.2415570807394873,3.4440584288798677,4.94430519346792
1,13.820367726748955,15.399966699930696,4.551697344721935,6.992670155057787,7.027783689737725,3.2344301602505596,3.403617984529901,4.939895150968702
1,13.469528764147807,15.143247627835606,4.570249390042023,6.9726572207407935,7.0003662907828055,3.2616654547119848,3.394565793010488,4.926381102719396
1,13.320987874355188,15.070688140414857,4.507259102313136,6.757521924796291,6.927833124063525,3.2379955813149874,3.3756290961644164,4.880888948037737
1,13.332051220408275,15.03286996841187,4.491587578391295,6.783275058024738,6.881226783886871,3.235619070476432,3.385489397640829,4.895838106926205
1,13.48978721012155,15.135880278162608,4.481300177632746,6.663140092886829,6.879736130896971,3.283993816165826,3.3584947788387556,4.802776974487434
1,13.386943505156673,15.171498244219618,4.453175185277268,6.633829384879619,6.655631893174073,3.2391831828885027,3.3512339862756866,4.784858597165834
1,13.281276583683802,15.153403611916401,4.461228990151044,6.656209747681348,6.583974327768749,3.213353548186229,3.3638348079810068,4.718213481980066
1,13.270847170221824,14.975621214802102,4.49016018216928,6.70418927582999,6.480542870580821,3.1452039190341368,3.2812599206199238,4.587329260429182
1,13.183614538801274,15.08318812793118,4.498147766951785,6.75163797789954,6.348228099241551,3.082622925783188,3.232447671458573,4.467259815189872
1,13.25644497342079,15.205683822598065,4.542957356002975,6.695769808866889,6.363356637208675,3.092588327615327,3.2009613940430217,4.375631822509048
1,13.436078487721227,15.288926778923432,4.564354645876384,6.700746227100382,6.1552562487015505,3.1128352975613067,3.211757247268949,4.3603693092237625
1,13.465816170147471,15.258036974253677,4.4494309633295686,6.661600639255034,5.994869601456027,3.11653983013542,3.23205102777692,4.302056753192862
1,13.495393326081349,15.21192177545507,4.426030229194509,6.6463793883857525,5.918029817690759,3.119007074087061,3.183289703016886,4.268248905341477
1,13.389337510659702,15.275420175512735,4.407162003271144,6.74422830163803,5.899369805543987,3.112011469229409,3.1655193603124308,4.131182235954578
1,13.316656236958787,15.470401847829724,4.394343683675232,6.655631893174073,5.884791349807505,3.0697030675746024,3.1744169664558997,4.1094013538688925
1,13.120643355082937,15.285739960952043,4.341215710622296,6.710496943652477,5.84522597225006,3.0776281243507753,3.1545652713618164,4.053488526043861
1,13.16015743027961,15.092789924076586,4.346823184219919,6.679858742556823,5.823471517301386,3.0900999900841315,3.151719107619417,4.0743097574926725
1,13.173107804567957,15.18771433319269,4.337670413411399,6.736239535298836,5.892411460557793,3.1029349216838447,3.1366321968731907,4.061072234312964
1,13.19615328565342,15.308452500129397,4.363896165537139,6.719470369849253,5.86646270041706,3.0896850723259557,3.1309046779747387,4.058545906084452
1,13.310974843415913,15.162115406160963,4.359487149324815,6.725573085866611,5.773946790407887,3.0738766970582847,3.1243460854294716,4.06769638077301
1,13.29516974173472,14.983923008276195,4.383828089461164,6.716607812938054,5.745008982162536,3.073459589152564,3.128036985813209,4.099405835621573
1,13.222746524116147,15.08293312969569,4.4234225060089685,6.716035155143859,5.884355616857382,3.1317235362803513,3.132132885152929,4.070532000762403
1,13.085811458922276,14.918840265643803,4.351539662682328,6.60341791840621,5.876070551670149,3.0975590058741083,3.0234129127569793,3.9906943037071914
1,13.166877635440631,15.260473494687224,4.406580161298409,6.5818320261544825,5.862090289657996,3.1329514224425212,3.125987023612682,4.014716517756729
1,13.407709225168432,15.415526638375399,4.474142232646244,6.636534467897364,5.912611466938645,3.1849002721576296,3.146426544510455,4.020460491548519
1,13.689973871975965,15.537382546949676,4.571371336638044,6.6575578798142585,5.8642769025467745,3.2085622628946746,3.5521752093539414,4.2754516930363256
1,13.502136583063153,15.310294843833942,4.762298518518886,7.222649560006817,5.992302755009322,3.2812599206199238,4.263139567778537,4.792355023020171
1,13.462293019145488,15.333472686100322,5.043655572941271,7.315771512322731,5.906319952780698,3.381700376422701,4.700790986359199,5.008966319485847
1,13.318196536106493,15.279951671288854,8.156325215784436,8.000320506400241,6.261399859865859,3.5759165939909012,4.856399425975523,5.165467189137037
1,13.184198000753664,15.154418835983458,8.672680359345929,8.348499020628552,6.302014329988834,3.6321216516393955,4.8553433425823735,5.134848261308864
1,12.957524296617617,14.862446221679246,8.91181871564457,8.474698391123592,6.254024345397171,3.645158362428097,4.851380982348989,5.128852523238332
1,12.713409032622573,14.730484699668898,9.629947945648379,8.86942313043338,6.327595241358406,3.733081493337299,4.843711228132666,5.051529344460816
1,12.55694720371648,14.314149356314255,9.675769365818555,8.866531712873112,6.353073150967054,3.7665872467234163,4.828335169892466,5.0115251785643675
1,12.120442574639268,14.221778171486656,9.737582493643524,8.855390941000218,6.311162272574619,3.7723691800736088,4.809978943394393,4.971972729260773
1,11.886859799687885,13.927099574717722,9.767948633813576,8.879824438088969,6.218046523153599,3.7577270816961708,4.807579485855696,4.942489770166968
1,11.776660969465988,13.89613486198821,9.891721480417544,8.85263976276177,6.29264935440041,3.8444098610173163,4.810511993647417,4.936779807910707
1,11.677394335276105,13.557191298253333,9.891073416638527,8.879535677396303,6.300997072096138,3.8444098610173163,4.797435212213356,4.890597991856284
1,11.505405641452151,13.471432261622637,9.920711306177235,8.922457980302088,6.382066219553761,4.055385782654203,4.8150405382110115,4.8545511292669135
1,11.449554912410687,13.180307766532344,9.901825783468109,9.045327452223535,6.454773626092751,4.159018621915018,4.850852423107637,4.827804087542525
1,11.26920013997763,13.179626857485918,9.913471797353493,9.056517698349229,6.473615088008578,4.221738613779508,4.85164524037584,4.798504040390195
1,11.136449740402586,12.91937523296914,9.907650501584039,9.096350352948688,6.495955349094996,4.263440286543612,4.847415383215667,4.775203043072001
1,10.956557572803323,12.905872247219033,9.911273043021938,9.101845403191033,6.531383801230361,4.306524566997598,4.846357342084825,4.759066919966345
1,10.763066001079327,12.820056402132018,9.92058207556133,9.081680630638973,6.5384464554878825,4.308607961291276,4.829928066566326,4.69123569091261
1,10.457361534173438,12.477055865745054,9.919289676801847,9.092262137071872,6.500493077944953,4.305333603322446,4.829662620270802,4.644268593571088
1,10.29014963385759,12.254146341712365,9.915799358754539,9.063027172995872,6.485684432972557,4.305035810923451,4.832581727590973,4.622409184253019
1,10.094552986635911,12.201618219707056,10.286286614113584,9.091839113267373,6.480147196808703,4.3023547517907454,4.799572630547165,4.607129369318928
1,9.91605794296328,12.447118912855666,10.856405411623982,9.057650116946759,6.48074069840786,4.3175254071082945,4.8022430656453094,4.603510366264824
1,9.613825514624292,12.179533063341372,10.987172007297815,9.015229280187997,6.457156633911849,4.316931483808544,4.820894693003119,4.575295983139597
1,9.435068246733184,11.936369761234907,10.982270093667175,8.934232637474402,6.3983170864268315,4.282642366696715,4.79502947773084,4.563511917990467
1,8.970607274415421,11.75464992553138,10.986355173577815,8.89208809949782,6.386484125650004,4.26494356231634,4.78539444560216,4.54069914417909
1,8.701164083630212,11.517099884241247,10.989272158068639,8.842206477153503,6.302828018091643,4.228717451196199,4.753676040438168,4.513228419793393
1,8.631041176756822,11.399055291490674,11.00955296141748,8.817523345515902,6.268562179229923,4.203173404306164,4.745037893988267,4.532220828801885
1,8.652108087568854,11.010833825758226,10.992654890355722,8.722355598087432,6.208967873268636,4.185751165622823,4.739631057804242,4.54069914417909
1,8.557497837029771,10.675156877487767,11.024564646326205,8.747307277979013,6.180407421637824,4.173788784846787,4.725001695834725,4.515784283190207
1,8.401770265232416,10.574279389886794,11.039207515220582,8.67740951537012,6.163790042847638,4.1540835639657345,4.690142417606943,4.489303526589191
1,8.125774124857589,10.407837283656818,11.052903087726168,8.666173555991369,6.10170215847752,4.129009318071097,4.672889623765731,4.434422461167019
1,7.914446382310107,9.953610348730704,11.105554165971787,8.635941591945095,5.9839528998557725,4.082796929707718,4.630722378159778,4.351245032554859
1,7.723590237308434,9.527019605527354,11.102090355262394,8.579193674382465,5.893716776016424,4.073365646772665,4.611857626730337,4.332347027793453
1,7.307179469184522,9.210362057528968,11.132419738348407,8.577998092914878,5.87083185474313,4.052223194804652,4.5945899066463385,4.292211192739346
1,6.975966066725279,8.988454132513983,11.131728734360383,8.52507613320392,5.837763885212143,4.0465243078917705,4.585092902338722,4.255915942875342
1,6.651585505997028,8.608433551182713,11.11432432171228,8.474244539356915,5.653000111127741,3.9903730305670577,4.5519790004472584,4.1651792216803765
1,6.387889182283002,8.573662712498802,11.10647766638218,8.456070494332945,5.587302454489888,3.9636165821452014,4.539004748021762,4.134904581418524
1,5.807378154179476,7.786246915275743,11.08510203739628,8.431625447818925,5.5240731906252485,3.896415183479718,4.456916261733281,4.037960896929068
1,5.169436809080552,7.298752966897488,11.05209111203477,8.338049947264464,5.430209893473685,3.8454101845160142,4.41791225783726,3.9948685033395477
1,4.132733620678591,6.729384472937729,10.991138621868446,8.293030747221366,5.417209045823674,3.794733192202055,4.090012851838626,3.7089635016282188
1,3.9694345008338727,6.612148880697774,10.880822932678745,7.6853173365907645,5.23131595936115,3.7086178225649182,3.3378174966623986,2.9469671502436845
1,3.694070092209113,6.484102848011415,10.741842462407437,7.528067140494622,5.208228204067198,3.5937980766014963,2.631661267268458,2.552022827644869
1,3.658148613991958,5.821049337071057,8.60962490621055,6.763211192992989,4.671792057191868,3.386625277356615,2.2993867632870044,2.127957971437671
1,3.6271766232719154,5.721305212391079,8.075763042459128,6.296315568933132,4.518338700826291,3.3139178146193187,2.260020421963551,2.102501562547058
1,3.612300921672771,5.605857742187276,7.78937474861487,6.051276618858926,4.401340122257637,3.251823945781655,2.199067401399383,1.9922928422374984
0,3.6137202934060015,5.4676203045632015,6.860888781476849,5.387069038031053,4.207441515049746,3.1325421805333304,2.1531134284791955,1.9715931342900053
0,3.6027055360502582,5.446005357964162,6.71087903600545,5.303603032675535,4.10159443668885,3.073042424632264,2.1399736399047486,1.953957194502663
0,3.591656999213594,5.399430169364741,6.607299770436502,5.249175759473687,4.047791420591652,3.0373740345306546,2.123132663705287,1.9434307491966563
0,3.5759165939909012,5.329165037789691,6.543542520527296,5.133349983322981,4.012800032715822,3.005550421026627,2.103111248383433,1.9454087962727487
0,3.5830798956291137,5.334455010252712,6.357309542202945,4.966296664930778,3.634944361722819,2.8617728054029006,2.0804338797965025,1.9473848341577717
0,3.5647850296605976,5.233031185136907,6.338526885398774,4.83629440685155,3.5633461658160432,2.8216198293778807,2.076733134714355,1.9388074579427321
0,3.5333575228973624,5.228619467743043,6.293260538475123,4.655572894323423,3.339353537929467,2.485341641892132,1.9774368283857793,1.9148542155126762
0,3.3158515942170563,5.1838011991004125,6.2948900725621115,4.411232748220656,3.1362234352637306,2.2645540682891916,1.8362447744772132,1.8946618668626838
0,3.1921377773748407,4.970425354547456,6.26753949186212,4.384997734116305,3.0462250703923996,2.123736426738594,1.7795130420052185,1.8667124536509057
0,3.1144823004794873,4.890335838711347,6.231845427792432,4.255915942875342,2.897832965758361,1.972243288680073,1.7541160386140584,1.8550001727831837
0,3.032727468374944,4.741524151794577,6.23431364840322,4.218092897543592,2.769337604776776,1.837640627795075,1.7089507952287042,1.8570724134287142
0,3.0212919634164996,4.679469617107894,6.213715185801197,4.114390006818159,2.6194538479496945,1.7628648013084576,1.6532795690182993,1.8618986725025255
0,3.0166206257996713,4.663277157338372,6.189735092297611,3.9399336191206222,2.4672210049323686,1.6478424121816428,1.564837994400043,1.8550001727831837
0,3.012793235010175,4.658876281371743,6.208554891933698,3.8809197958136754,2.3071794301867645,1.5811388300841898,1.5266857013705313,1.8501559185854912
0,2.9630199424720685,4.40192265685383,5.556931453553047,3.671442111689517,2.1908902300206643,1.5063966175050876,1.5063966175050876,1.837640627795075
0,2.908872369413698,3.451866830482401,4.296092440393974,3.3752492785433925,2.061241846246565,1.4614709835974973,1.4789115886960542,1.8271457354194653
0,2.8956200345721097,3.364596977427285,3.9535767642438953,3.245114671436008,2.0336905949277133,1.4114913008260774,1.3737465148925718,1.765771422905218
0,2.9009282334081647,3.2502465389724766,3.8967442031284762,3.1957503833717227,2.0216773944374724,1.4187390573394787,1.364382080481293,1.7519220214469506
0,2.7386127875258306,3.2348265122109043,3.874968982506133,3.171184361781928,1.9858473616040442,1.390443574307614,1.3116832012772064,1.65482976117229
0,2.6994776322798986,3.2427433779725177,3.8527379541813827,3.171184361781928,1.9858473616040442,1.3913653136029502,1.3126602466277872,1.6517279219669105
0,2.1643972335538098,3.178856430405155,3.8196522864972393,3.135405752174546,1.975490851045406,1.3867504905630728,1.3097269239748472,1.521638792678675
0,1.7445887032735663,3.1748208106107625,3.85373611593763,3.128036985813209,1.9275332981260311,1.370943900926358,1.2465336553202861,1.4667249405672664
0,1.7156892910984038,3.1272171621886415,3.780177719333258,3.010238937615827,1.884484558515153,1.3756117520244193,1.2320506150108923,1.4641003188271435
0,1.7104505329418402,3.0792939583695613,3.788985386143665,2.9207480601327513,1.8257418583505538,1.3558987935910034,1.25881507165087,1.4473671942087796
0,1.6923659663626436,3.073459589152564,3.7485039750922033,2.9172343769838602,1.8059729957943618,1.3464102319948823,1.2567765033955638,1.4526721620022909
0,1.6893330500070594,3.0638504348579887,3.583437684825235,2.772113883774508,1.7759071354792608,1.325296290046213,1.2434443478313961,1.4658505888111342
0,1.6779107888635247,3.003416857599494,3.5456726966536083,2.7151049467368424,1.7489923839097639,1.325296290046213,1.2393132920684082,1.4728308691872156
0,1.6847734383179058,2.972523748584263,3.4287622047045283,2.5171208623936665,1.7111999088958392,1.3310878527711354,1.2444749691006038,1.477176794446515
0,1.7051956801764152,2.974679469912338,3.355439518002725,2.470855763724019,1.7089507952287042,1.3301243435223524,1.2465336553202861,1.4605934866804429
0,1.7066987176477613,2.968207609022053,3.3519990208676127,2.4781092875467863,1.6679482252310118,1.3281952281583322,1.2475617244891157,1.4641003188271435
0,1.6999245835458672,2.9482719841133536,3.32550362486261,2.471893284560725,1.6756169931378433,1.314612158853374,1.2434443478313961,1.4693448740763206
0,1.6908501882113505,2.949576240750525,3.3523814726939323,2.4604564929797386,1.685534230155425,1.3018724188152213,1.2475617244891157,1.473701079525584
0,1.6870547845739468,2.943920288775949,3.3293566022003986,2.456284456925405,1.6733200530681511,1.3097269239748472,1.23309075923584,1.4728308691872156
0,1.6862946787527213,2.884974336640956,3.3347432915462654,2.45210532253827,1.6579257971085282,1.2999013769296461,1.23309075923584,1.45531739423011
0,1.6946370914726467,2.9216258206514802,3.3108214179472837,2.448966291608747,1.640825308284734,1.3048233989947078,1.2268366660351349,1.4588369093922489
0,1.6900917893446665,2.924257521368809,3.34242350275887,2.4594141474582822,1.6282757909156702,1.298914734376159,1.2236976331741014,1.4535544409551755
0,1.6786746909239796,2.9062267368795998,3.364596977427285,2.465661610904298,1.6306361822841902,1.2949606468627055,1.2299676877139956,1.4509059945869012
0,1.6733200530681511,2.8800819076671753,3.3247324935769123,2.433737233777904,1.5557997366347702,1.2719861311935432,1.2236976331741014,1.4214474385332792
0,1.6923659663626436,2.8809720581775866,3.3208741512145754,2.4405758042745274,1.562378200380958,1.2850221987506873,1.224744871391589,1.4331246121137386
0,1.6938803881120914,2.902253766140536,3.3131439867477956,2.442676128074835,1.5827596801562154,1.2750062845496197,1.216341719866247,1.4304383405634253
0,1.6870547845739468,2.8370262509744157,3.3003496318280723,2.4136364733822337,1.5803277816440162,1.2790220623184871,1.1940021045379383,1.4455945454184551
0,1.6794382455192631,2.8065856617824934,3.28867520673365,2.405122737952345,1.5803277816440162,1.2750062845496197,1.1821319289469756,1.4473671942087796
0,1.6931233465600393,2.8329562343320847,3.294517590459361,2.3664319132398464,1.5533256300018077,1.2790220623184871,1.1734236561971456,1.4517893468724405
0,1.6786746909239796,2.795142306363043,3.3193295585025475,2.396043747727833,1.5549754718157833,1.2780193008453875,1.1832159566199232,1.4447074053868096
0,1.6794382455192631,2.8608766811268507,3.2773503994882267,2.230327100305911,1.528364300779574,1.281025230440697,1.1821319289469756,1.442042710701448
0,1.6532795690182993,2.8536975564326617,3.2847745112478557,2.1973177121675254,1.546708664328125,1.280024038235821,1.1766968108291043,1.4187390573394787
0,1.670252552682854,2.8742892097940427,3.311982905938793,2.160246899469287,1.5525000516123695,1.2840241231059284,1.1766968108291043,1.4250506063888506
0,1.677146538863111,2.8783007807759398,3.2808691781451094,2.0957833123459335,1.5408955105259325,1.2919871397311853,1.191852684064948,1.4349126659746085
0,1.6878145480822082,2.9185525038876237,3.409639427511511,2.150134163971384,1.5500206781085544,1.3097269239748472,1.1940021045379383,1.442931489035873
0,1.6725537053966002,2.904903017049199,3.39494344954979,2.1477477768165683,1.5500206781085544,1.3058055770780752,1.1940021045379383,1.4295417949782872
0,1.6710199556880498,2.8876394405225767,3.389652429046906,2.151326364874732,1.5400632687636153,1.3018724188152213,1.2057554287027505,1.412399304329974
0,1.6671794083082898,2.8814170303106255,3.398717706912719,2.1519222176392043,1.5475373323030999,1.292979068583429,1.1950753650733197,1.4023789311975086
0,1.681726829245799,2.855942971491247,3.3454906504588666,2.1572774865200244,1.5458795521461528,1.3008872711759818,1.2025613689761725,1.4032928308912467
0,1.6664102366833555,2.841541654517662,3.3714487489307423,2.1507303470312187,1.5450499950420657,1.2999013769296461,1.1961476626107794,1.3987173611599508
0,1.6641005886756874,2.8257061745014087,3.3725893575054426,2.1453587351685734,1.5317159809030676,1.2840241231059284,1.1853810379486442,1.3756117520244193
0,1.6416064677235513,2.764704277782661,3.3239611833951894,2.1122354181147664,1.5433895431974658,1.292979068583429,1.2025613689761725,1.371878741744795
0,1.657152330401115,2.81251780621144,3.477399558910033,2.2960389525865783,1.6267002938936987,1.3358949751441482,1.263897107139619,1.3867504905630728
0,1.6617877305896989,2.8356702278342665,3.459657608670368,2.3885410201895643,1.7686732677928754,1.5012815038646663,1.3155870289605438,1.390443574307614
0,1.6594716490034271,2.8474009741679,3.7258624883443137,3.3653589742612935,2.532354736765865,1.8708286933869707,1.5207960128894713,1.4214474385332792
0,1.6431676725154984,2.91371645664838,3.77440774773392,3.550731235631938,2.6999525162016442,2.0865872025501724,1.7059473644448735,1.475439960460295
0,2.8738431340235606,4.130561518914646,3.993584598918364,3.905288984349564,3.1115994732695405,2.2904483941258853,1.8522335788904245,1.6540548467017155
0,6.264265770305858,7.294536065457241,4.890073671512579,4.386167066866188,3.51881390273076,2.8640118893894457,3.1403086570492498,3.3146914618376604
0,8.404211398505469,9.256598478092014,4.996922129594454,4.800373917059977,4.392884689749538,3.3832164941300826,3.5619067207297115,3.6158483063257747
0,11.355671800967217,12.408537176951798,5.611800753083425,5.675182138724034,5.335656545283886,4.08656334834051,4.509818348721103,4.664651579590308
0,12.19489174266769,12.832850473766586,5.648916392570916,5.820388567520477,5.645738124847713,4.148833632820255,4.545214445873193,4.8413284890060435
0,12.577758146824099,13.556718459295944,5.737863445837389,5.966143796027028,6.00128191434002,4.224167343227508,4.6942408796202,5.0786127724318275
0,13.521587677981213,14.746403298988207,5.836885365435128,6.1119890589242925,6.322527894312446,4.329682880553014,4.825679173668664,5.185779371734561
0,14.304921154301034,15.678664254983994,5.946988033169957,6.471634359421991,6.743277754311687,4.468981413229963,4.925079720817751,5.2730568179309625
0,14.958575278380437,16.29912692329066,6.041310776432206,6.638852233207105,6.920056321098802,4.6163033273666505,5.14333025906816,5.365129577616498
0,15.408788700957945,16.810558342746138,6.076858162587402,6.7552448758970485,7.041270281667022,4.6745354904291885,5.203795459036335,5.4349297638940595
0,15.599720576064241,17.091908416947867,6.118697699548617,6.881971989302082,7.198468498086847,4.773054711822533,5.348615924488532,5.51687388254412
0,15.840956329587474,17.601937539038286,6.194911062874356,7.003478988953844,7.311915109196944,4.799038365211225,5.390875481917428,5.5483885394423655
0,16.13826476866673,17.733063425746224,6.245203287529086,7.11553014404192,7.340439447475286,4.813975381569683,5.458233019238707,5.638921518999524
0,16.452417794417066,18.102627660235633,6.2732643937463815,7.2827509595249476,7.402702209328699,4.829397159385105,5.48494442858042,5.650051054908878
0,16.495453919186343,18.247936307626116,6.258122926573316,7.425355037700045,7.5321532999092184,4.9130908335244055,5.564539744139004,5.709865506521506
0,16.664410103647956,18.762688014739826,6.290204024248075,7.463071478783778,7.571369824915504,4.925860591216784,5.584548279599657,5.724441524658171
0,16.846745101437858,18.93572122897722,6.3312412199043075,7.497862943395853,7.604823031033223,4.939895150968702,5.623211966528811,5.768615351791371
0,17.25108692227826,19.03283263071259,6.340144785210815,7.564254670352441,7.671124679351382,5.02506537781172,5.679021222999792,5.802298395176403
0,17.47599085632218,19.23378437901552,6.348228099241551,7.661257846781545,7.743318045836317,5.063696835418333,5.733169347684644,5.821710031623671
0,17.55036707922044,19.344846262585726,6.367384843370922,7.6763038648584665,7.823370642193057,5.072550564634051,5.777498349587577,5.839081417044277
0,17.58510441924919,19.392107831637233,6.371812928829597,7.791514121638509,7.874821935308792,5.137094858939593,5.812894596476319,5.854649697199917
0,17.8140681945766,19.539965619474778,6.425709578695849,7.881982049309744,7.913474390119483,5.1691887971433985,5.841057157565634,5.868210752511999
0,17.840029895341168,19.666905691724345,6.413727265475001,7.922056195141155,7.965953191954511,5.243310756793621,5.914129105533889,5.889582284608942
0,17.945215775542216,19.713850396000712,6.404725819308179,8.019687314065594,8.030071685984582,5.306261419908584,5.966143796027028,5.910659644734879
0,18.452294694351146,19.98961268720871,6.441054221723296,8.076874236726573,8.059076742947541,5.337578438743884,5.994441870043727,5.976664021049939
0,18.501004823716453,20.03983212990747,6.420320305133758,8.128298147166525,8.093048615783541,5.3553232563018245,6.0104609661523485,5.9813813686240636
0,18.659293415594032,20.111292911299923,6.430296878738799,8.200375225936545,8.147518105659618,5.394916885840615,6.0449173394700475,6.005126015458665
0,18.788089516827082,20.14320525509081,6.385480324482957,8.267793554293084,8.213965593380019,5.4320983337649835,6.0734816610556654,6.042583926832999
0,18.884602329098836,20.429553755935704,6.402723779367012,8.295503879535264,8.298285272364312,5.539832451414355,6.1341833301756745,6.067145655928858
0,19.0292622167235,20.484015031113206,6.438864368735714,8.368592075930893,8.372727399274629,5.599221557616921,6.191391873668904,6.082762530298219
0,19.052693463264667,20.540142061276885,6.464697030202397,8.403296056630673,8.413816476029632,5.614084851331401,6.207315783071555,6.087608262608096
0,19.14164475959587,20.650138138235423,6.49852054169018,8.458950653233895,8.469401940560456,5.655720952025434,6.2194896319594655,6.115973201799384
0,19.231117945556296,20.740645095424565,6.483114161478975,8.516499822742277,8.518757583663874,5.695252183696297,6.251768980425891,6.114295984380817
0,19.297535381360795,20.845032612480715,6.474803234313527,8.52988712463268,8.562440342296384,5.744785818684984,6.275920608737772,6.1228868672990835
0,19.372264074821388,20.95281634579258,6.50226784894987,8.57426082633067,8.608880328638593,5.784373290078568,6.297333583065951,6.142746399887703
0,19.404202558288166,21.041168437868873,6.418323129515356,8.55674872354849,8.65951381355671,5.835787029733886,6.3346827172483655,6.168779956672644
0,19.453956159517023,21.072524339795695,6.405926742938717,8.58472107278017,8.685974547864728,5.853773711604051,6.401722524606271,6.208141883126194
0,19.628472255295954,21.097575507808767,6.2718336581814285,8.264381404557755,8.520412894774285,5.783929992128721,6.3756347094793595,6.212064358145655
0,19.799313637417345,21.211571587950978,6.254434324377283,8.221921916437786,8.519058573243816,5.763056525214767,6.34438980921586,6.219077349327879
1,19.767040684834374,21.131396012471523,6.132720147720456,8.097957957221258,8.436033823229176,5.72757611954029,6.33488510004477,6.188906535290713
1,19.042597323382985,20.41411025334921,5.47371340696044,7.912340248316436,8.439832298734924,5.573747990954262,5.9355512996493625,5.532190181576209
1,18.30160424522173,19.744846779830286,5.3811160790685655,7.699650341711329,8.085124041672506,5.335656545283886,5.724889429007251,5.3514915246556765
1,16.758541641465044,18.022635340465186,4.748009029434311,7.089537252990386,7.558320258377858,4.8545511292669135,5.0616709514263,4.505552130427524
1,16.183879285200714,17.815723392554116,4.752327365051295,7.158820988732568,7.401663014797106,4.849795131808437,5.07179227917281,4.334713784062748
1,16.217353794702888,17.454189123208156,4.680291465830756,7.06780348862687,7.150040344157292,4.819032778792537,4.996152365724894,4.1268352560732575
1,15.519136243476623,16.524418605700177,4.585092902338722,7.138016674909218,6.976701152719598,4.768217427498188,4.893218750841796,4.03732584763727
1,14.88072234254431,15.789236840328922,4.462952914601353,6.889791779816773,6.668717633233159,4.709782508996703,4.839209513747955,3.9435113859708903
1,14.278996589037467,15.161777177477816,4.368007232078169,6.850603566896075,6.539230723987223,4.597658266820353,4.655572894323423,3.839738238941522
1,13.919272748464765,14.7057463040464,4.331755136674113,6.76510655249913,6.467869303977419,4.571932206689432,4.665750825883308,3.78560024709018
1,13.803195468014104,14.398628852099522,4.276351188475928,6.652163712002438,6.371008051301112,4.502421001172022,4.497292632867137,3.6658507250652663
1,13.754999091239519,13.823799618680672,4.208660180249828,6.575205953681857,6.29916559390902,4.536179347967083,4.470415571802624,3.6514837167011076
1,13.47219358530748,13.767669299802272,4.152231405043033,6.466878135585425,6.330633702633811,4.609355035810742,4.442221666388715,3.5348085938098253
1,13.160060010774247,13.33397434356583,4.1209284490332125,6.340144785210815,6.324758027194724,4.651991577918606,4.5353313847205,3.6391743216820136
1,13.213338249371644,13.285812753189791,4.1209284490332125,6.304048353322304,6.2194896319594655,4.609633168563194,4.514932489485904,3.6169118432789156
1,13.097171352467578,12.663494879538687,4.1215506168406435,6.304658432359198,6.208967873268636,4.668772418680942,4.58313519385237,3.64656494490855
1,13.112921792976497,12.578981247731043,4.064227936268919,6.284290548049771,6.225464661887517,4.720386772506177,4.578097242192913,3.5959378791588197
1,12.607384893234356,12.467496201662206,4.064858782673381,6.238425179317992,6.182688818438223,4.671243177197353,4.537874799100091,3.5651446548851857
1,12.393753596272932,12.229849989645448,4.079341324408347,6.174804055855144,6.117649959391353,4.651715977836731,4.5089654279855855,3.5959378791588197
1,12.331947254060207,12.106895682912407,4.0664354705192896,6.170026804579602,6.021329608683638,4.655297506260462,4.4844460538907605,3.57519947444213
1,12.320402091340513,12.05744795891947,4.049691346263317,6.038975970247834,5.994227992891931,4.6012818726736215,4.459504399277961,3.570534686670604
1,12.091955367738693,11.891388825748159,4.032241852738295,5.97044000440117,5.998504087024638,4.594310863197255,4.479869503593913,3.6108809920103346
1,12.151711919071426,11.858352028022816,4.026833075182608,5.929500346485727,5.959478552305111,4.523159775972363,4.412685675616933,3.6158483063257747
1,12.041594578792296,11.867862227299145,4.08656334834051,5.805832611063835,5.9833101206606365,4.582295919889493,4.398717761884473,3.6144297702545782
1,11.803085211622447,11.492249339089145,4.033513452218893,5.769059826527307,5.97408935234012,4.582295919889493,4.402796314232057,3.57484086072194
1,11.876501254632277,11.62203918732831,4.026833075182608,5.697277802510104,5.957972465313674,4.597379409609069,4.403960921133587,3.5970073030870453
1,11.682772765366083,11.589340814421695,4.040500095983297,5.62503561242288,5.910225818931899,4.571651780264984,4.374459673593693,3.5766335697563
1,11.727460651536347,11.6846381728648,4.039865445842574,5.516641490375583,5.856401275308574,4.571651780264984,4.378560821981907,3.5619067207297115
1,11.590889437343364,11.222116441914931,4.087190747338348,5.501048851040905,5.7637238674760285,4.481300177632746,4.346528234385197,3.5435025407653167
1,11.475168285453908,11.2288547718447,4.033513452218893,5.503844809976721,5.736969628019701,4.452599356066187,4.278748918514886,3.5337203464874647
1,11.492695562053807,11.211029367867141,3.988766276714695,5.511758991418908,5.710763566531232,4.466398767320038,4.299373836341216,3.539520465854821
1,11.426689405476582,11.045477088046677,3.948060218281819,5.448358962533158,5.67563393048041,4.444529913708103,4.337965965512952,3.521727431611382
1,11.316087935052739,10.959599468631165,3.964910190724731,5.428556969327187,5.7192881034492755,4.450007202529464,4.340625028843847,3.561546768556519
1,11.247449853416915,10.913177167875352,3.9704033251173065,5.516176676667013,5.744116276231862,4.462091035630762,4.4054162468139495,3.573047252229764
1,11.14979590476654,10.763661563632064,3.906930069005915,5.460346565501554,5.67563393048041,4.414428557263045,4.387336087960204,3.551092284108709
1,11.13921232772099,10.663260674161924,3.8957570608192547,5.4493001197283855,5.6468734258153415,4.406289211500377,4.4010488260448515,3.5409690112258168
1,11.15830149743644,10.620734437881403,3.897073194998971,5.414605130381044,5.642558066910923,4.36007527575573,4.322570460341321,3.5253659566355844
1,10.899776520880058,10.703342396725354,3.9085704646229775,5.445769941561088,5.7067211835402185,4.4077437684381255,4.363896165537139,3.5333575228973624
1,10.761398250584927,10.538573834325899,3.870665483098647,5.457528321925172,5.666817494222,4.371234643403659,4.404252024741079,3.5271838116301284
1,10.718065267431575,10.377243347208328,3.8230072737812852,5.432334342642803,5.607687031758624,4.381195247289464,4.420813244595359,3.5380713274252567
1,10.638825846145588,10.177274835481406,3.777124126457412,5.383736191959575,5.40251603303308,4.297882603305362,4.315743392005719,3.470756955788441
1,10.529689405407881,10.041580220928045,3.7172501554171355,5.402990624858393,5.339259528033106,4.2954955536331365,4.337670413411399,3.4932168702449755
1,10.379713942997732,10.047961905856255,3.7141448268574284,5.430918135533972,5.307227776030219,4.277849927241488,4.290418663451424,3.444802848737017
1,10.474021587008888,10.045537343159923,3.6881654114971716,5.250396810400778,5.263566111024749,4.267948525390696,4.294002973736923,3.491748515043386
1,10.121442078260872,9.784865341106629,3.6479709850398083,5.212165257037297,5.248198714186587,4.258927275554437,4.261334809537307,3.4343662872314296
1,10.145227499945037,9.788795269108084,3.68886057037838,4.970167411925287,5.165715379752874,4.250188532771524,4.242942858743693,3.3809420626164584
1,10.134606870039725,9.657599638069016,3.6756300698324376,4.935740923259492,5.08214572087471,4.182993652569401,4.219308486300108,3.398340469805512
1,10.18659249536697,9.888221431426537,3.658148613991958,4.858774774332754,5.055842013111017,4.1952353926806065,4.206832050062838,3.402110958560725
1,10.049365332683632,9.8696634395635,3.65604522218567,4.861676401808068,5.077602907086304,4.237500472732747,4.194012826606947,3.3695468766358116
1,9.988583226453834,10.017164755737511,3.6059068349811954,4.911785930355784,5.003588455888178,4.2341711264668,4.241431785346028,3.3904087946546793
1,9.988069806601196,10.092774770304873,3.5773504018247775,4.8953143478333,4.9678453256404005,4.198900955103517,4.247472853477188,3.429136095137427
1,9.997307329784048,10.125747835630179,3.520635140833511,4.891122255993702,4.909958483296198,4.147906484617054,4.222953153106642,3.420526275297414
1,9.975739802911091,10.22139535860555,3.5500090285186743,4.8553433425823735,4.846886391520611,4.093146241443879,4.1059681390598195,3.3355121084536665
1,10.08146306028532,10.085785885248454,3.557584890963286,4.739360554076727,4.8014420910645335,4.078084014677632,4.058861783106068,3.2726528093056877
1,10.025863988602115,10.045409718386622,3.49395081643865,4.7040626195029684,4.8640491731657445,4.070217029430577,3.9996794743373996,3.2272875011973468
1,9.91075561816943,9.92239115102031,3.5191782257531923,4.689595685377119,4.827538524458216,4.053804797142227,4.014716517756729,3.226095520546828
1,10.13334176787773,10.18256428335296,3.506038746549686,4.66959615011065,4.876421554735314,4.06201920231798,4.060125045440766,3.296462750686964
1,10.111176857116952,10.20532791970537,3.4726033978809556,4.752327365051295,4.94430519346792,4.123727464943362,4.0783983784487425,3.2545825680581055
1,10.11206438635782,10.25045339835243,3.4589163858212246,4.750708449192685,4.969393503725761,4.1398625023618285,4.071791642445274,3.264808472020121
1,10.159371068763091,10.267574052475927,3.499450506315791,4.80437834501523,5.015105387853984,4.179620888218305,4.094085790691063,3.275785284595013
1,10.101028127412043,10.243947556409177,3.5880856977445474,4.767410736259792,5.004357075947893,4.303546539833492,4.348887272949313,3.3366650016645862
1,10.254204891102866,10.242570791078595,5.885227050496645,6.3716117189794215,5.311332828043862,4.429504805338044,4.56575884669283,3.4280143014990547
1,10.239315882596344,10.210853953589703,6.1348103015413145,6.6752508835978865,5.347417301358834,4.463814627159267,4.84318183185499,3.6119459915887235
1,9.627551276921022,10.251578990324944,6.683888013301762,6.922464360364221,5.6427852733402535,4.787537239595408,5.066987169350143,3.588442987832338
1,9.497233065342552,10.163913036086456,8.049366912516021,7.735035179672374,5.81465875269189,4.842652377703984,5.404176922078718,3.6395265964344654
1,9.42827172350838,10.092774770304873,8.2050641023137,7.81386013801183,5.828312857871544,4.857719207347817,5.472542183365785,3.63318042491699
1,9.10987066811289,9.940592769819345,8.28467847510677,7.993266396931087,5.8305121383006995,4.847944317188896,5.4556486840798835,3.5888002423494094
1,9.092403140633111,9.94497682765345,8.335589438189198,8.049366912516021,5.828532823257914,4.825679173668664,5.441059474507535,3.573047252229764
1,8.937245603336576,9.836483632701793,8.431473393763607,8.018248417971826,5.838642272801408,4.842652377703984,5.483308003994183,3.5579452439539256
1,8.863928630648532,9.750082182428134,8.431777499132185,8.066232240898012,5.858808840168881,4.868001222004356,5.485411888795917,3.5554220060388952
1,8.801660682463893,9.739820458514755,8.440439896179917,8.066232240898012,5.860340411920603,4.879049928534059,5.476289217138151,3.555061397284376
1,8.749358950876461,9.644581313771413,8.435729871299724,8.045224734315445,5.821930246479409,4.9318431567799195,5.536128425959602,3.5622666365312394
1,8.688483388356312,9.47804480540862,8.422192905255336,7.9773718440637795,5.757492331624763,4.88036358460604,5.462693991157261,3.5387959708178887
1,8.648847559216437,9.41003283462486,8.416101783531925,7.987811227434472,5.757046963816584,4.8795754334016,5.4525928906135315,3.525729602616915
1,8.585467745571956,9.310595012520924,8.408176728484952,8.005607009449289,5.718839760399674,4.826741747539006,5.3923022056375025,3.488442456058401
1,8.447727656837818,9.283014541320021,8.404363945792289,7.978657428350609,5.636420031299191,4.800106836417877,5.365129577616498,3.430257521916783
1,8.38267444013131,9.13207927007162,8.38771996157753,7.947907320120861,5.536128425959602,4.710326898122835,5.306503025437219,3.3938103538572566
1,8.158054066616998,9.045469187417135,8.380227033213666,7.931760240502767,5.499184088664939,4.68220855185637,5.251617577421949,3.3623099507820817
1,7.951455277220707,8.949144064500219,8.372268019770496,7.915418255142691,5.471136384091822,4.625459090173838,5.205519752861946,3.3239611833951894
1,7.874496320888867,8.828276249555262,8.364454708114723,7.884746715604171,5.425013293142168,4.571090875805445,5.146818783456786,3.30733450658707
1,7.780317045810751,8.68922114476114,8.362001968612356,7.8399044996799905,5.394441583704471,4.502705739259337,5.094240085751951,3.260486042106181
1,7.711130816004775,8.484525884643142,8.344658970463284,7.827630220685879,5.340459982109483,4.481586257634164,5.087944524774173,3.259699529963003
1,7.529769976396085,8.292257742107301,8.318807853446556,7.785258917355056,5.2883519802171515,4.443087399660921,5.0418759227605765,3.1820812412069284
1,7.303494070718866,8.22067437498209,8.317883113339565,7.785423592382146,5.264783824427051,4.410651443250322,5.016127835446229,3.143165153072167
1,7.095683050187484,8.097324661063471,8.294885665585042,7.759031131691901,5.200345156197783,4.371234643403659,5.008454390789177,3.1407168869706426
1,6.93634057070589,7.9651484445419936,8.29272155382241,7.716449296379115,5.1555297671032,4.360957316685033,4.9843344333611626,3.094246107593734
1,6.743848098785083,7.652886165798278,8.292566952799758,7.661257846781545,5.116839970338264,4.316931483808544,4.948193143422697,3.0659419433511785
1,6.688873271413179,7.464960885740864,8.29194851988423,7.634604081887907,5.020215543436766,4.24566143558822,4.8845649098946735,3.046645906903407
1,6.585142562169977,7.223004559862528,8.323121948785742,7.5911554473374485,4.98921914655066,4.215964773851766,4.84503446575553,3.014494897520891
1,6.096447052723961,7.022308773674119,8.330358443360753,7.558659493146475,4.95207804089121,4.184219438281447,4.818234595304032,2.933449881134533
1,5.933607023362122,6.767190834819999,8.343890748356717,7.557981008382922,4.9279423073546,4.1398625023618285,4.788072788256359,2.914156428935772
1,5.807819662383572,6.497928664049562,8.365834058070927,7.538618522698256,4.908130355822224,4.131182235954578,4.7789602988999125,2.861324778346472
1,5.3670409170350295,6.406327000788021,8.377472845796117,7.505553499465135,4.890860130949649,4.092833010432022,4.745578238793753,2.843796667692591
1,5.2345009313209605,6.246640122538901,8.389095486220375,7.494442385305705,4.781910357447813,4.0201415972000865,4.709510290835681,2.834765852040947
1,4.808912665628378,6.089292830820931,8.376401528347513,7.486397921975151,4.740712918365651,3.958114029012639,4.655297506260462,2.8134293336397516
1,4.223560291799034,5.564309342725156,8.391387526230963,7.4771446627501,4.639573366769947,3.901347564690029,4.591798709069833,2.7042227187900987
1,3.971371913054086,5.375872022286245,8.430408938586247,7.375809386268337,4.528258849174614,3.8132696785076243,4.535896711165167,2.6727494726572756
1,3.8300431811182976,5.171420476386516,8.449396883346628,7.363806150737608,4.491587578391295,3.779160129188929,4.511807870068301,2.6379868003790996
1,3.570534686670604,5.119595336572648,8.473034149129088,7.318574892801088,4.385290096535146,3.712763847138057,4.4735691022739905,2.595360752553956
1,3.3725893575054426,5.015105387853984,8.442262426138793,7.305600240349514,4.330275054922268,3.531542845810436,4.166410248520225,2.4289915602982237
0,2.422649534957702,4.586211217697385,7.079222034615429,5.950867206787638,3.901676168402104,3.353910843883294,3.88982894620949,2.2309018528216513
0,2.2549091743605514,4.415590096174677,6.9418832883983,5.604027855491816,3.680161646394047,3.119829055146024,3.4748178332624824,1.8584526235140229
0,2.115874069249651,4.079027033308499,6.435080140158039,5.256009991014194,3.1456115136602287,2.535390527750139,3.079710276083675,1.7643187106700742
0,1.837640627795075,3.6850355737071494,4.635149985126197,3.9513061780657432,2.7460927954141754,2.3544829036520403,2.4040564010620007,1.5738243475442477
0,1.8271457354194653,3.6137202934060015,4.408616272244323,3.7723691800736088,2.657355539166421,2.273030282830976,2.2054710526557733,1.5275252316519468
0,1.8257418583505538,3.5557825782223724,4.242338493971915,3.3588764910385263,2.562550812504343,2.1938141472833363,2.1632122363483384,1.512342384243557
0,1.7838305082185588,3.4009802508492557,4.073995078229219,3.1776462826179848,2.500769112462435,2.164989488930486,2.0994504775517586,1.4961489025032029
0,1.776628902278204,3.391164991562634,3.876953601833433,3.0529514933114843,2.274721735588548,2.029272953042226,1.9454087962727487,1.491858245826669
0,1.775185075219497,3.3763886032268267,3.8921353970176766,2.8120619316957276,2.124943438161264,1.8973665961010275,1.844604050349045,1.473701079525584
0,1.5224811059414558,3.3053957441796626,3.892464778425368,2.7660950907881046,1.9884280610185912,1.785267343335302,1.7335305607713425,1.3987173611599508
0,1.521638792678675,3.3581130232502714,3.9105380310524653,2.6828037381507985,1.7489923839097639,1.4815099712360342,1.3913653136029502,1.2729936451187887
0,1.5157294934901469,3.33743337588356,3.946111360794937,2.667467828369185,1.6794382455192631,1.4375905768565218,1.371878741744795,1.2780193008453875
0,1.5148834261657875,3.3512339862756866,3.950981702090812,2.6194538479496945,1.6617877305896989,1.4114913008260774,1.3530592118489237,1.270977818604485
0,1.505545305418162,3.3584947788387556,3.9726629962848956,2.4956372188691867,1.5508475763685499,1.3625014702415028,1.3126602466277872,1.2679480697932024
0,1.503841235482809,3.357349381847959,3.9861941234394984,2.4692986650941795,1.5664757112212606,1.3728129459672882,1.3243285671789133,1.2679480697932024
0,1.49529175611231,3.348554988770606,4.010243294620824,2.4641012300217846,1.5689290811054724,1.3737465148925718,1.3330127819803819,1.2679480697932024
0,1.505545305418162,3.360784401724067,4.021098204375363,2.361550989693654,1.564837994400043,1.3690723042845379,1.3425960310399039,1.2659242088545832
0,1.5080977999980552,3.366120798600257,4.054121043567574,2.3215821307340367,1.5762662797304854,1.361560191047812,1.325296290046213,1.2689587898180186
0,1.5199527657978094,3.3771479394791406,4.076826317187528,2.304955642267441,1.5697460189796832,1.3700084222088114,1.3291601358251257,1.2689587898180186
0,1.5241643359811707,3.349320635285418,4.070846947724131,2.292686253374032,1.5795163167475652,1.377474463442389,1.3116832012772064,1.274000362275036
0,1.5275252316519468,3.3588764910385263,4.09533818771965,2.2446517632945957,1.5754527228867523,1.3671981455629498,1.2999013769296461,1.2679480697932024
0,1.5207960128894713,3.407006355687102,4.112519971115097,2.218222896940887,1.5541507698368957,1.3530592118489237,1.310705427603288,1.262882336115204
0,1.5275252316519468,3.4283882734961852,4.165794780572629,2.234347263141451,1.5266857013705313,1.3625014702415028,1.2780193008453875,1.259833118781804
0,1.5964704659710898,3.409639427511511,4.151305015694864,2.238932896006603,1.5525000516123695,1.364382080481293,1.3243285671789133,1.72686168584843
0,1.63613051952559,3.420151443640456,4.139243087006769,2.2211108331943574,1.564837994400043,1.3671981455629498,1.3378129875821918,1.799572598830494
0,1.6455067024148846,3.4062536756037565,4.131182235954578,2.1984843263788196,1.562378200380958,1.3737465148925718,1.3625014702415028,1.798147194568157
0,1.650951551572918,3.414148540472464,4.1302511254128795,2.2019804605667934,1.5590924381733209,1.370943900926358,1.3681355458414461,1.8002848777417537
0,1.6100644994246947,3.4280143014990547,4.12248369249313,2.2008156995963435,1.5884196306634224,1.3681355458414461,1.3756117520244193,1.8017085907975923
0,1.5956672103398772,3.440706546403157,4.1212395446777155,2.192060264939859,1.5843788720682974,1.3662601021279464,1.371878741744795,1.7895709269442501
0,1.5697460189796832,3.4152748885122794,4.180234320508717,2.150134163971384,1.5868045619888789,1.3530592118489237,1.3793346593789713,1.7809533603648557
0,1.5859964108990334,3.4380972674595496,4.111896436888009,2.12856036577994,1.5908391593021687,1.3473620951268501,1.3587324409735149,1.7823925148302988
0,1.5835694830642284,3.4310049361367687,4.0818547820247675,2.120715892673014,1.6116562590812897,1.3577885489242216,1.3587324409735149,1.785985327415539
0,1.7082004326040658,3.417526470927062,4.071791642445274,2.141770176087875,1.6132464481796025,1.371878741744795,1.3464102319948823,1.785267343335302
0,1.7238894604338388,3.4555789154678034,4.0651741691643455,2.12856036577994,1.6132464481796025,1.3728129459672882,1.3530592118489237,1.7945787306531917
0,1.7386997794550165,3.4533521433009153,4.016312890048438,2.0976176963403033,1.603681661613324,1.3671981455629498,1.3378129875821918,1.778792445481643
0,1.756307314969503,3.4358591654967765,3.9797564672303176,2.1128422951329244,1.6012815380508714,1.3671981455629498,1.3358949751441482,1.78742043036097
0,1.7453234216482187,3.4257696122035752,3.9526038155976275,2.1182963643408086,1.615628797173537,1.3793346593789713,1.35400640077266,1.786703022974913
0,1.7672229409661144,3.40775886952415,3.9108658625516415,2.1357758453401567,1.6219646206897458,1.378404875209022,1.3464102319948823,1.7881375499205585
0,1.7809533603648557,3.3703077543414874,3.840405961447038,2.1273554065179203,1.6004806970215109,1.371878741744795,1.3425960310399039,1.7693979854089443
0,1.78742043036097,3.3756290961644164,3.787970162068063,2.098228801290294,1.603681661613324,1.3653214142107946,1.349263806863884,1.762137396779322
0,1.78742043036097,3.3270453512434677,3.587371010814294,2.0624854311839766,1.5996794550704083,1.3700084222088114,1.3464102319948823,1.7672229409661144
0,1.7802333468483196,3.3204880703958306,3.560466693696639,2.070550527560119,1.6076739049370008,1.3671981455629498,1.3464102319948823,1.775185075219497
0,1.7952929908727777,3.2746109575149416,3.539882657768366,2.0693117894728386,1.604480904953055,1.364382080481293,1.340684861343596,1.778792445481643
0,1.7974340685458343,3.3220321244529583,3.5355339059327378,2.041241452319315,1.6219646206897458,1.3876746829286126,1.3330127819803819,1.792434242258419
0,1.7902871850985822,3.2929606349893925,3.553257804556408,2.0355809351607084,1.6219646206897458,1.3941268749973021,1.3301243435223524,1.796720659480802
0,1.7902871850985822,3.3092721331558774,3.5492866744510647,2.0468863157839494,1.6455067024148846,1.3996336517011725,1.322390996913526,1.796720659480802
0,1.8038420534642587,3.3813212407775355,3.665151201974256,2.0816659994661326,1.6594716490034271,1.4042061357916336,1.3445044840729643,1.8158843293106246
0,1.8088103471052104,3.3691663733454975,3.7481619427017754,2.1085904880165436,1.6641005886756874,1.3968829769461903,1.3378129875821918,1.8194110064129023
0,1.8002848777417537,3.3397374378603706,3.743027706316961,2.124943438161264,1.66332999331662,1.3922864426767714,1.3378129875821918,1.8215237352142075
0,1.812350789614247,3.30578358762414,3.7358279211454932,2.1267526708757,1.6794382455192631,1.3959648809042255,1.3511628420146202,1.820819764662229
0,1.8278472696113428,3.30073806820108,3.698925692961577,2.1189015054370954,1.6840123027749636,1.390443574307614,1.3587324409735149,1.817295821423717
0,1.8418218405447613,3.3177842467062724,3.7306767104573293,2.1219246222625587,1.6870547845739468,1.4304383405634253,1.3662601021279464,1.8257418583505538
0,1.8899192765287283,3.5644253681523765,3.750213669126409,2.12856036577994,1.7089507952287042,1.442931489035873,1.3885982601908762,1.8735678291047833
0,1.908147174886057,3.650079029702908,3.779160129188929,2.12856036577994,1.7104505329418402,1.4500221041639685,1.4069424933120684,1.879716290649558
0,1.9208705291465091,3.687817782917155,3.766927606119288,2.136976056643281,1.7409104602963448,1.51657508881031,1.4331246121137386,1.8899192765287283
0,1.925536888167118,3.687817782917155,3.791353185125197,2.15965334350274,1.7533850046008077,1.5275252316519468,1.4295417949782872,1.9007420952934444
0,1.9341731155782413,3.69337591385248,3.7927055494218616,2.2662518474118087,1.8529256146249728,1.6187998086585076,1.5199527657978094,1.915523627948966
0,1.953957194502663,3.7590915432813325,3.8327201293263755,2.3955086179059215,1.9578900207451218,1.7320508075688772,1.6068762497626512,1.925536888167118
0,3.6027055360502582,4.740712918365651,3.8931234576378717,2.5099800796022267,1.9929362437857543,1.8236340163643103,1.6916082470650413,2.107374110362382
0,4.78539444560216,5.5771971639102205,3.9884448482701007,2.7698005111911708,2.3842431471256,2.1170855632334,1.9301919660077922,2.611120203657564
0,7.011163259859968,7.399757445782278,4.355073669487885,3.0550504633038935,3.260879227038826,3.3900306329453267,3.464471691696167,3.942535953366785
0,10.636174365259585,9.636602231289956,4.927421960770884,4.050640974918946,4.10159443668885,4.163024048785838,5.673148630576796,6.03918826265541
0,11.443618757037052,11.39027925638619,5.195905685964276,5.414841901709857,5.102538332624012,4.256518379843874,6.038339048243189,6.265084361066661
0,11.990594604704095,12.321234536880649,5.587531907784761,6.138153067244501,6.027075661184371,4.7089658073040805,6.291630582338364,6.334480327985953
0,12.53681757352299,12.674929828359847,5.655040864528495,6.419122074328249,6.433486114832578,5.066987169350143,6.557829534619531,6.418123377772329
0,12.717845326296029,12.934450123604018,5.72108112429541,6.65466869082266,6.818714819881515,5.282773164512395,6.841052550594828,6.460927932084504
0,13.106076101153647,13.140464028024082,5.733169347684644,6.881971989302082,7.082481095035726,5.515479382656853,7.113367697511496,6.532953939795319
0,13.220031420886668,13.272199593559542,5.722201477018242,6.993220159921194,7.228327465514962,5.579265644169054,7.146453307186361,6.552548926631333
0,13.454386378445983,13.696340518172859,5.697727842228212,7.173491085864285,7.546437434228018,5.7067211835402185,7.233469217676738,6.598950965581866
0,13.511913072240914,13.871572110633776,5.703350342404465,7.2309874489712325,7.6243536926594135,5.752591389305144,7.27447240134628,6.6220300551478966
0,13.586569537409796,14.03840885132368,5.725785132592332,7.266713714267833,7.699150802323791,5.804507532281072,7.324178434718105,6.663909686339717
0,13.673106675289494,14.181063574448995,5.723769602415742,7.372506097240351,7.896120436563638,5.876288729357095,7.3737232706275915,6.66910211924537
0,13.690816686321584,14.398539812006936,5.755265147938618,7.4707978498163445,7.924483320534904,5.985238251153994,7.566118809941716,6.712789171539537
0,13.789628209413268,14.605495979956066,5.781491245832776,7.591830967289606,8.303536472414507,6.218458874128764,7.669453228262939,6.732432029039805
0,13.970298163218665,14.805491011870025,5.804949258816643,7.624689989494486,8.395206202320892,6.33751548827319,7.774712460673633,6.755055087175029
0,14.106190675891751,14.982553957083654,5.840179133185241,7.763491152297069,8.55435111957202,6.384476365492981,7.79529772790409,6.777413469261952
0,14.280792192347931,15.176398680947893,5.879996511424048,7.83892326462748,8.686712517343622,6.436673770727333,7.8444819737123135,6.803468195499961
0,14.42184952042364,15.242232153646034,5.8893645993957096,7.869121737721239,8.707497506201928,6.452389738177114,7.882144703581959,6.821534529219458
0,14.505436646571255,15.365629310332984,5.882394419159948,7.97881811182198,8.767217492688463,6.491414448212465,7.921408836104721,6.846859658229251
0,14.968685261623296,15.724389026490353,5.903931762513034,8.063211805191813,8.838000702096398,6.515464837698232,7.947907320120861,6.897788571671879
0,15.09109093607966,15.846782412228446,5.9071881462225155,8.107451463361913,8.965889776657946,6.5754009334714665,8.006567816806912,6.922279156314683
0,15.24660533886066,16.053755850986303,5.942459130092567,8.211780156174015,8.994015104073803,6.601670340304133,8.045543439120147,6.932827890846747
0,15.282971922019316,16.136914203155445,5.948496901286525,8.325740130339687,9.079562849524285,6.63440913837733,8.064324728911487,6.9431759525229015
0,15.520623170148278,16.435109385483887,5.947203609195734,8.403753740030519,9.108040966992313,6.65100724972522,8.09003819204322,6.980191754033475
0,15.627310085642394,16.56633905676175,5.9695810100791356,8.474093250033093,9.186528598567998,6.697301408317096,8.103022544641867,6.9983514542299945
0,15.675065942690395,16.61085527059076,5.938142677768737,8.51318735693976,9.20785617745061,6.709732693670651,8.112352088651997,6.997252207941233
0,15.748097158151015,16.804532355656544,5.875197759901255,8.559744784117735,9.252026804976301,6.723094525588644,8.142796092567233,7.004760286167305
0,15.77120062743383,16.913884449749773,5.886316161124711,8.613942186943213,9.306876421117277,6.736429854120592,8.153809869295173,7.012808793877613
0,16.06868271211315,17.081854219894968,5.901325361784505,8.667652803856711,9.359076220028754,6.775521552448366,8.228000972289685,7.051641016503962
0,16.12713909484926,17.101282003225553,5.91131032374293,8.698216734421738,9.419156693702087,6.799509786251751,8.25258312318805,7.077591941635777
0,16.237342210204293,17.22006879285821,5.901977069875258,8.7310233782054,9.503710476467221,6.8539713361614725,8.281892512568827,7.108499787632355
0,16.30109324633293,17.212547599695835,5.897196204716533,8.783872167581348,9.557518184453214,6.868732574462859,8.313566299452036,7.1153499652655965
0,16.364517588289484,17.308586871468723,5.87541596999845,8.803262798385374,9.614892295088586,6.883462158104109,8.319424289746287,7.120573298728418
0,16.39300976729927,17.308883149915708,5.873670062235365,8.84438109327481,9.637666490630156,6.889605697474034,8.359548509462176,7.120753345337009
0,16.423716435035693,17.314289341021635,5.856620185738529,8.862337481783552,9.701440548596313,6.910972323887462,8.367213180638846,7.131727593054747
0,16.49592024154411,17.432065944027492,5.869739871054437,8.880113189391803,9.737582493643524,6.946683399753457,8.382215605765486,7.16311778559144
0,16.499961149915414,17.424121211699603,5.841935049981738,8.857417578157087,9.739820458514755,6.971553923090899,8.390776376779934,7.170094588654769
0,16.324513578962883,17.26245369848411,5.802740289879849,8.838871026643677,9.760333117476193,6.975598494679461,8.37609541248035,7.1302893097703715
0,16.100644994246945,17.153380469705134,5.7432234315422015,8.778616210092714,9.736002444008712,6.926907772018571,8.334666560017064,6.970450450808721
0,15.33054601198669,16.593943906105455,5.4774596395194095,8.703815844582781,9.489670497643537,6.420919336684205,7.833360610972692,6.319485535698095
1,13.16132640809857,15.445852484546101,4.928722724226602,8.34865258589672,9.234828167435023,5.972586949705703,6.436673770727333,4.3826581326510405
1,12.596702865310553,14.284472473499113,4.640678553390381,7.556793513463776,8.756975241749595,5.929716558279869,6.102542555445693,3.8894993415869257
1,12.216109582568967,13.613530222840993,4.160867759593005,7.018656457010733,8.183629688090418,5.656854249492381,5.904583182926849,3.7910150186717635
1,11.86926649711292,13.332243545207158,4.034466888812334,6.80384506674775,7.914122398177408,5.375872022286245,5.643694007587765,3.687817782917155
1,11.71575752390661,13.128946293180986,3.9295070480946643,6.642906376594896,7.655566099753323,5.1867681751321895,5.305294887765792,3.6147844564602556
1,11.406813078830766,12.942773451443266,3.872652307842249,6.4504024919141525,7.469081569187706,4.9678453256404005,4.9564772436345015,3.5085974990381
1,11.353752344828221,12.873247951488887,3.8600518131237567,6.352669537793561,7.373375527305432,4.90447205658735,4.916481960893874,3.496151730557031
1,11.197870676709377,12.511738078444166,3.8186452155249095,6.229787830276117,7.0803085547714115,4.813442714859165,4.840798832148815,3.467800603500874
1,11.247905787984918,12.425470119569226,3.851406669430448,6.282454199533075,7.057093176553935,4.787001631019631,4.849530772966465,3.4540945601950783
1,11.235703166292069,12.414734835091767,3.8340579025361627,6.291426808129558,7.00421118749102,4.732322029920597,4.786733804257399,3.3919210198836005
1,11.200503651679332,12.32331540471567,3.826024246977734,6.2077288468406415,6.820218809934518,4.6833036772489285,4.764989843129595,3.411143127442388
1,11.355333096989702,12.080605350768877,3.800472305331239,6.124143058839188,6.857337451451323,4.5998885159288765,4.5457785432313536,3.3447241272157986
1,11.315181542217223,11.875421719907088,3.7645444441253275,6.001495540109042,6.431891694457454,4.318416138900691,4.410360762033198,3.3193295585025475
1,11.315068238007637,11.893437104296055,3.6658507250652663,6.143789860188404,6.431094336034448,4.146360776911205,4.2492834991808035,3.3181706421244237
1,11.200961497190251,11.672452777636492,3.5941547988294436,5.99764911209341,6.340346993658944,4.167948520770724,4.288326432274435,3.3258891234583365
1,11.026076318181321,11.596860760015163,3.5158979594889357,6.068835904089781,6.230610950822785,4.12466004815191,4.215964773851766,3.28867520673365
1,10.892128420949762,11.571295164970591,3.504941566505123,6.09350221389713,6.26487972340395,4.125592420551602,4.1719453741783585,3.294517590459361
1,10.854988218822221,11.475056560946577,3.496151730557031,6.130838400021607,6.29264935440041,4.106592573424172,4.155934897444241,3.27539388901627
1,10.331430759505748,11.169211344194453,3.483293460696835,6.114924994822724,6.284290548049771,4.122794670782902,4.170408576183836,3.2161451683016025
1,10.337137430469339,11.12562300185869,3.477768220406845,6.121630417981714,6.208348390964359,4.050324456772347,4.093146241443879,3.1989581637360205
1,10.267948637910555,11.072835784373048,3.4133974352955225,6.0108875576547955,6.224846821305561,4.02364804496412,4.0474746796059495,3.183289703016886
1,10.251954160186441,10.997668750636107,3.3832164941300826,5.8891469061360056,6.13606405208437,4.022692044147959,4.068011547269495,3.186912338990556
1,9.984218316153518,10.875047892614848,3.398717706912719,5.812894596476319,6.168364284696385,4.0385958463624965,4.080912416831088,3.124756400761916
1,9.893924579748099,10.71387789211635,3.3653589742612935,5.736522666885603,6.068835904089781,3.9726629962848956,4.06769638077301,3.095902999871828
1,9.99948716633726,10.740410153081225,3.3220321244529583,5.821049337071057,6.12539899276062,4.025877830696345,4.083424907398075,3.128856594627435
1,10.07446632804298,10.548301601047756,3.3220321244529583,5.772170191353397,6.118697699548617,4.0594934634122986,4.051273937025305,3.1366321968731907
1,10.372671193685246,10.582762956566295,3.27226103905118,5.705373086072641,6.073903826395977,4.083110930625676,4.0752536494913185,3.132132885152929
1,9.951291631150458,10.384529914178183,3.2714773577948084,5.6837600411284255,6.024522536672246,4.060756529237328,3.9493589223361174,3.0600821172155763
1,9.949358953708705,10.458464857687632,3.2730445326668733,5.679924159840382,6.016004296234145,4.0579140782755205,3.924610057389664,3.010238937615827
1,9.865505822217385,10.38292483865352,3.2545825680581055,5.713681286714708,5.90610288447901,3.9687884865890815,3.8779455306207615,2.9460969399337795
1,10.109908823043678,10.697111999423262,3.218536058361683,5.669305569558378,5.959908792969303,3.966849812621778,3.8333890742881547,2.940434295500215
1,10.163534616334806,10.598137233519521,3.228081910440443,5.6887202832920565,5.958833133063243,3.968142367173064,3.8263593193825436,2.960855732160327
1,10.207840124139876,10.675036780096368,3.2105595007244934,5.661838063421653,6.036852635570106,4.012161000936515,3.7859388972001824,2.984575733281417
1,10.405496575097171,10.732409579615165,3.209760754723645,5.689396344888513,6.052124017913474,4.056334078185148,3.846076922307677,3.017895344058887
1,10.519822558706334,10.73515671723472,3.2145502536643185,5.730932711486826,6.003204272591558,4.027151439659145,3.896415183479718,3.040327242845701
1,10.601161039462394,10.790903101390066,3.198557367121814,5.738310302537249,6.015364941931236,3.9765337308792583,3.8676833323029896,3.0386400466875525
1,10.497985154670982,10.75222099894977,3.232844266475274,5.751922755445816,6.013872850889571,3.959409435373295,3.878937205750287,3.0407488956100677
1,10.519822558706334,10.619768697080326,3.214949056501119,5.738310302537249,5.964854330114624,3.9187255908535183,3.8967442031284762,3.0462250703923996
1,10.613972406993069,10.495786700459307,3.1853027872015316,5.7318274706978185,5.977736472389306,3.9193798567552065,3.922322702763681,3.057567325296035
1,10.563968756932022,10.458587442004358,3.177242797595392,5.725337298315897,5.937926772786471,3.9039756199322815,3.9115214431215892,3.0483286719623415
1,10.45086182190315,10.451597841282329,3.1993589101408166,5.743000198681111,5.953236568541993,3.9206880610161874,3.944486577360146,3.0483286719623415
1,10.377737513419575,10.351514196186283,3.1937438845342623,5.814438262437078,5.978808731357263,3.879598181678362,3.8947696683155435,3.004270464795243
1,10.267074583970865,10.399334298220912,3.2141514013451875,5.781712992548586,5.963349600814836,3.9043040024554623,3.8931234576378717,2.9807071953842406
1,10.261453888091877,10.438095906526542,3.2109587992150272,5.7403207272139465,5.942674870408495,3.90889846113802,3.9216689278274344,2.991012177533526
1,10.186844205729018,10.499938949761468,3.2573388540734305,5.7141300345093695,6.020477875231654,3.9324423154195873,3.916107434161815,2.9764029228204905
1,10.171352430056205,10.555227165382114,3.2956848243632857,5.719512261794751,6.011740649847234,3.9526038155976275,3.9448115875841854,2.9660471839530635
1,10.129545513382736,10.545384213253124,3.2952957923340294,5.692325017298652,6.097077904566988,3.9311380227417803,3.902004744441122,2.9295138303225814
1,10.048599851439949,10.558384686091296,3.2675561321763205,5.610429847785557,6.074114898063074,3.9321162828098637,3.8430756913220914,2.9216258206514802
1,10.062879233178666,10.39847128804062,3.2482737032587097,5.56246578785215,6.072637242329158,3.9980764605764336,3.893452755456827,2.922064602034243
1,10.089725670332376,10.405989399601337,3.2506409624359724,5.546539692826742,6.127282410954284,3.9758888701386397,3.849408879029184,2.885418691566447
1,9.970340631477557,10.44902154663542,3.271085446759225,5.536128425959602,6.072637242329158,3.9265695865409946,3.766246856568935,2.8956200345721097
1,9.887962119253636,10.418179377341394,3.2616654547119848,5.525001450284066,6.105693013859048,3.92787539621678,3.762500532413285,2.88630719618845
1,9.685701859587693,10.150912552131736,3.2644157603482826,5.395867364510049,6.03196612926626,3.950981702090812,3.751922584079138,2.851000723992389
1,9.815085197587306,10.3108108562237,3.294128420581391,5.446240764191248,6.083605543611157,3.8950988269612457,3.6724895489544265,2.8129736068474784
1,9.827747218188682,10.153564487157787,3.259306202718137,5.267461803008527,6.037277362248479,3.8743072168139183,3.7089635016282188,2.828880362009695
1,9.829312519977407,10.12524137097545,3.243534001750686,5.217573854108529,6.021755430232821,3.881250129030924,3.7231087093366564,2.7914705250651837
1,9.752448739176044,10.133088728491781,3.2017623352275932,5.003332222962347,5.9230103226358874,3.8430756913220914,3.6728386283287193,2.7707260920060426
1,9.630081076422023,9.934787365615835,3.2029633714693584,4.909436230624053,5.849172634896368,3.8109154967116394,3.6101708177499487,2.707065778329948
1,9.454614936090396,9.78538942269781,3.196552630248518,4.876684455862536,5.792789505619055,3.8350609262034294,3.5941547988294436,2.6804132861585703
1,9.280528278508994,9.524866241742028,3.500915631147123,4.898194329781914,5.769282051054133,4.0156744172854735,3.9085704646229775,2.737208010420051
1,9.237326730618829,9.477368454402985,3.7200082712893985,4.919088929612464,5.808040403899867,4.107529046981272,3.9577901111734772,2.720765352352919
1,9.222742236394463,9.173680300534254,4.605181028764484,5.042384458333282,5.798319827373515,4.147906484617054,4.135524646591301,3.0344179520448904
1,9.149050672344547,9.154654133701191,5.125351770291554,5.507337762546368,5.832051141135554,4.154392176838191,4.147906484617054,3.0554700842746665
1,8.95043330851956,9.077444574328174,5.4363449259448355,5.474416020840102,5.761721608810677,4.107216912853613,4.133043827743819,3.032727468374944
1,8.737335156729747,8.949287323007548,5.561313255716237,5.5296404111771205,5.850487597474686,4.1134550952347615,4.1636399263021575,3.034840425830724
1,8.345273497231217,8.77744779213125,5.832051141135554,5.610201331000428,5.8928465978371625,4.114701596807383,4.136764498109666,3.0289204305096846
1,8.28808226867396,8.697627144728495,5.954313239479944,5.630047592821565,5.8982831052555955,4.125903164529789,4.161175869316823,3.01534536866139
1,8.173283556965592,8.585169084248033,6.024522536672246,5.640285499229672,5.822150453005822,4.105343609717237,4.139243087006769,3.003416857599494
1,8.05430287931829,8.433297861484132,6.080865323037757,5.58018472261103,5.806936612406995,4.094085790691063,4.123105625617661,2.9922978050064057
1,7.60549733703127,7.9722274338110966,6.409128105828676,5.6366474851453034,5.678118142573791,4.070532000762403,4.098154681667323,2.965614910077132
1,7.421728321762478,7.851996316469217,6.437271280477586,5.5884496267542065,5.578806048168095,4.036690698439973,4.095651227138241,3.025956089636837
1,7.310687645232413,7.728900143998332,6.524116994973539,5.591201879876854,5.44294415051643,3.959409435373295,4.046841123261831,3.034840425830724
1,6.960695514909559,7.638129721405996,6.6049709329898665,5.541452184012085,5.309884348540163,3.8779455306207615,3.973308380579022,2.982427165057312
1,6.656787552026917,7.383106149193333,6.708012812855674,5.51687388254412,5.277188451127925,3.8142781687650875,3.8600518131237567,2.8916324907460944
1,6.512315748660872,7.283103029862322,6.7299559948269865,5.520823052723858,5.219293595978831,3.765906435647503,3.8363978831644556,2.8689317229186946
1,6.422716096114015,7.161148740394329,6.775899978070847,5.544921446346543,5.1726598821506,3.7358279211454932,3.8273643605904506,2.845599391593254
1,6.189527963444095,7.0173776970881185,6.777602631897022,5.528481035881607,5.111575601339094,3.7189742175456435,3.787293194827903,2.8392848503696246
1,5.862308987648695,6.869105865002765,6.841989514229068,5.553931386518369,5.088700403332052,3.6926816049989246,3.737200378179723,2.817527557711111
1,5.77305855922189,6.8247287914556045,6.935786055316888,5.484243163548009,5.0005127942170295,3.6682980053984515,3.7196636186485246,2.795142306363043
1,5.683308895353129,6.6773632136629715,6.946129710041265,5.436109091186641,4.91491711592477,3.6154937244856162,3.6609512565129987,2.7762730967418006
1,5.511293765928194,6.614087529368949,7.083567115297424,5.479097810818202,4.858774774332754,3.548202867613912,3.6101708177499487,2.7628487713469467
1,5.253570214625479,6.4846959875758285,7.137298203173638,5.47792773845113,4.807312805534544,3.4641016151377544,3.5456726966536083,2.729233949062987
1,5.36942913453276,6.325568789667892,7.166159791258227,5.457058473159984,4.733134701502177,3.435486006748405,3.5064043969388066,2.720765352352919
1,5.256497810402781,6.174388789433082,7.19062780326782,5.44011689165516,4.5423929082955095,3.3722091975135338,3.4770308583248997,2.705644621991739
1,5.117591580982561,5.924741690788224,7.221406923080706,5.437523946307424,4.488446707509609,3.3385856056350938,3.4358591654967765,2.6899623484163184
1,4.934442009864737,5.745678420588861,7.230278215734376,5.37873305070713,4.326720792992404,3.2878954378532796,3.4073826333795285,2.6645825188948455
1,4.901072619387803,5.478395797386359,7.31507049933604,5.35101236527569,4.265544724284554,3.2534005877873975,3.3733495489627487,2.657837949180229
1,4.69287512332013,5.4207578238301135,7.3434079980374936,5.353407733301692,4.225987974305459,3.1740130709181043,3.2984067638008474,2.631661267268458
1,4.420523231589858,5.243555262879547,7.349515944290795,5.311332828043862,4.081540684468839,3.141533187669799,3.281650616569468,2.627761063173021
1,4.237197912989922,5.129852299568148,7.37528791267648,5.3016688228983435,4.056334078185148,3.1214723679042464,3.251823945781655,2.5904162619657116
1,4.2043933066404575,5.102538332624012,7.420173472296612,5.308676980383274,3.957142195950805,3.0751276813183313,3.201361889683506,2.579505021093418
1,4.0805982467380995,5.00666222813829,7.459291229133345,5.267218406672515,3.8865316421107656,3.0470666852918376,3.188118969565371,2.562050460881394
1,3.5984327072654767,4.678647624019529,7.458088020604002,5.1944250193886985,3.596294389136314,3.0021359917266426,3.171992821798067,2.539432603696729
1,3.409263398899669,4.556483124245986,7.474743799742896,5.176376318900298,3.5593862910944027,2.9931545832072155,3.11653983013542,2.508447267196919
1,3.2332408128449317,4.460366778065655,7.493073724857767,5.151549430847145,3.4814526882485164,2.95218302538725,3.0676141234282404,2.496664441476534
1,3.213353548186229,4.260432143724631,7.494100243627547,5.147316951079639,3.4555789154678034,2.9487068004248567,3.0521115011389437,2.484309737491457
1,3.1905308617042367,4.282642366696715,7.508968996114938,5.158015917494653,3.4250210555220284,2.9097537123726926,3.0373740345306546,2.4863731180277995
1,3.1399003740523934,4.3089055068157,7.498888806572166,5.100276513368713,3.329741654720301,2.8496513506941197,3.0166206257996713,2.482244641758435
1,3.1272171621886415,4.297882603305362,7.3723321989233535,5.052798158522585,3.2812599206199238,2.580498858549323,2.558545259743092,2.42582262018792
0,3.1243460854294716,4.236592728681617,7.246573018525413,4.987420071976991,3.141125063837266,2.3495771578121927,2.398717606106678,2.4035230552093894
0,2.8608766811268507,4.0783983784487425,6.721568803448134,4.830724317935918,3.010664804341819,2.206633356321518,1.9460676985088383,1.967036036586714
0,2.8388332742474254,4.041134646453794,6.327190002942328,4.249585198460475,2.896505409928245,2.169721712038737,1.9020906177016694,1.9434307491966563
0,2.8406391480141875,3.9036472097849133,6.070948052521143,4.104094265923937,2.8460498941515415,2.1255466868428736,1.848769514555213,1.9235384061671346
0,2.873396989002783,3.9268960796681163,5.994227992891931,3.98940905591099,2.51763014330174,2.015961945102775,1.7283458818128643,1.8878830906871762
